I,II,time
-0.19,0.64,0.0
-0.19,0.64,0.002777778
-0.2,0.65,0.005555556
-0.19,0.64,0.008333333
-0.16,0.65,0.011111111
-0.16,0.65,0.013888889
-0.14,0.63,0.016666667
-0.16,0.62,0.019444444
-0.14,0.61,0.022222222
-0.13,0.62,0.025
-0.11,0.6,0.027777778
-0.13,0.58,0.030555556
-0.11,0.56,0.033333333
-0.13,0.55,0.036111111
-0.11,0.55,0.038888889
-0.1,0.55,0.041666667
-0.1,0.54,0.044444444
-0.07,0.52,0.047222222
-0.07,0.5,0.05
-0.07,0.48,0.052777778
-0.07,0.49,0.055555556
-0.05,0.47,0.058333333
-0.03,0.47,0.061111111
-0.03,0.44,0.063888889
-0.02,0.44,0.066666667
-0.04,0.44,0.069444444
-0.03,0.42,0.072222222
-0.02,0.44,0.075
-0.01,0.42,0.077777778
-0.01,0.4,0.080555556
-0.01,0.37,0.083333333
-0.01,0.37,0.086111111
-0.01,0.36,0.088888889
0.01,0.38,0.091666667
0.01,0.37,0.094444444
0.03,0.36,0.097222222
-0.01,0.35,0.1
-0.01,0.36,0.102777778
-0.01,0.35,0.105555556
-0.01,0.37,0.108333333
0.01,0.37,0.111111111
0.01,0.37,0.113888889
-0.01,0.35,0.116666667
-0.01,0.35,0.119444444
-0.01,0.37,0.122222222
0.01,0.37,0.125
0.01,0.37,0.127777778
0.01,0.39,0.130555556
0.0,0.37,0.133333333
-0.01,0.37,0.136111111
0.0,0.36,0.138888889
0.01,0.37,0.141666667
0.01,0.37,0.144444444
-0.01,0.37,0.147222222
-0.02,0.37,0.15
-0.04,0.36,0.152777778
-0.05,0.37,0.155555556
-0.03,0.37,0.158333333
-0.01,0.39,0.161111111
-0.01,0.38,0.163888889
-0.02,0.37,0.166666667
-0.04,0.38,0.169444444
-0.04,0.4,0.172222222
-0.02,0.41,0.175
-0.04,0.42,0.177777778
-0.02,0.42,0.180555556
-0.04,0.41,0.183333333
-0.06,0.4,0.186111111
-0.06,0.42,0.188888889
-0.05,0.43,0.191666667
-0.05,0.42,0.194444444
-0.07,0.42,0.197222222
-0.07,0.4,0.2
-0.08,0.4,0.202777778
-0.08,0.42,0.205555556
-0.08,0.42,0.208333333
-0.09,0.43,0.211111111
-0.08,0.43,0.213888889
-0.1,0.42,0.216666667
-0.1,0.42,0.219444444
-0.11,0.43,0.222222222
-0.1,0.45,0.225
-0.1,0.44,0.227777778
-0.11,0.44,0.230555556
-0.11,0.44,0.233333333
-0.13,0.43,0.236111111
-0.13,0.44,0.238888889
-0.13,0.45,0.241666667
-0.13,0.45,0.244444444
-0.13,0.44,0.247222222
-0.15,0.43,0.25
-0.16,0.43,0.252777778
-0.16,0.43,0.255555556
-0.16,0.44,0.258333333
-0.14,0.44,0.261111111
-0.15,0.42,0.263888889
-0.16,0.41,0.266666667
-0.17,0.41,0.269444444
-0.16,0.42,0.272222222
-0.15,0.42,0.275
-0.15,0.43,0.277777778
-0.16,0.42,0.280555556
-0.16,0.42,0.283333333
-0.16,0.41,0.286111111
-0.17,0.42,0.288888889
-0.16,0.42,0.291666667
-0.16,0.42,0.294444444
-0.16,0.43,0.297222222
-0.15,0.42,0.3
-0.16,0.41,0.302777778
-0.14,0.42,0.305555556
-0.14,0.43,0.308333333
-0.14,0.43,0.311111111
-0.13,0.42,0.313888889
-0.13,0.4,0.316666667
-0.14,0.41,0.319444444
-0.14,0.41,0.322222222
-0.13,0.42,0.325
-0.13,0.4,0.327777778
-0.13,0.41,0.330555556
-0.12,0.4,0.333333333
-0.13,0.4,0.336111111
-0.13,0.42,0.338888889
-0.13,0.42,0.341666667
-0.11,0.42,0.344444444
-0.1,0.41,0.347222222
-0.13,0.4,0.35
-0.13,0.4,0.352777778
-0.12,0.41,0.355555556
-0.1,0.42,0.358333333
-0.1,0.44,0.361111111
-0.11,0.43,0.363888889
-0.12,0.41,0.366666667
-0.11,0.4,0.369444444
-0.1,0.42,0.372222222
-0.1,0.42,0.375
-0.1,0.42,0.377777778
-0.1,0.41,0.380555556
-0.11,0.4,0.383333333
-0.12,0.4,0.386111111
-0.11,0.4,0.388888889
-0.1,0.42,0.391666667
-0.08,0.41,0.394444444
-0.09,0.42,0.397222222
-0.08,0.4,0.4
-0.1,0.4,0.402777778
-0.11,0.41,0.405555556
-0.1,0.42,0.408333333
-0.09,0.42,0.411111111
-0.08,0.42,0.413888889
-0.1,0.41,0.416666667
-0.12,0.41,0.419444444
-0.12,0.43,0.422222222
-0.1,0.44,0.425
-0.08,0.43,0.427777778
-0.08,0.42,0.430555556
-0.1,0.4,0.433333333
-0.11,0.4,0.436111111
-0.12,0.42,0.438888889
-0.11,0.42,0.441666667
-0.08,0.42,0.444444444
-0.08,0.4,0.447222222
-0.1,0.4,0.45
-0.11,0.4,0.452777778
-0.11,0.4,0.455555556
-0.09,0.42,0.458333333
-0.08,0.42,0.461111111
-0.08,0.42,0.463888889
-0.08,0.4,0.466666667
-0.1,0.4,0.469444444
-0.1,0.42,0.472222222
-0.09,0.44,0.475
-0.08,0.42,0.477777778
-0.1,0.42,0.480555556
-0.09,0.42,0.483333333
-0.1,0.4,0.486111111
-0.1,0.42,0.488888889
-0.1,0.42,0.491666667
-0.08,0.41,0.494444444
-0.07,0.42,0.497222222
-0.09,0.4,0.5
-0.1,0.4,0.502777778
-0.1,0.4,0.505555556
-0.1,0.41,0.508333333
-0.08,0.42,0.511111111
-0.1,0.42,0.513888889
-0.1,0.39,0.516666667
-0.1,0.39,0.519444444
-0.1,0.42,0.522222222
-0.07,0.42,0.525
-0.07,0.42,0.527777778
-0.07,0.42,0.530555556
-0.09,0.4,0.533333333
-0.1,0.4,0.536111111
-0.1,0.44,0.538888889
-0.08,0.43,0.541666667
-0.08,0.42,0.544444444
-0.08,0.42,0.547222222
-0.08,0.42,0.55
-0.09,0.42,0.552777778
-0.08,0.42,0.555555556
-0.08,0.43,0.558333333
-0.08,0.42,0.561111111
-0.08,0.42,0.563888889
-0.08,0.4,0.566666667
-0.09,0.41,0.569444444
-0.08,0.43,0.572222222
-0.07,0.45,0.575
-0.07,0.44,0.577777778
-0.07,0.43,0.580555556
-0.07,0.44,0.583333333
-0.08,0.44,0.586111111
-0.07,0.45,0.588888889
-0.04,0.48,0.591666667
-0.04,0.47,0.594444444
-0.02,0.48,0.597222222
-0.02,0.49,0.6
-0.01,0.5,0.602777778
-0.01,0.5,0.605555556
0.0,0.52,0.608333333
0.03,0.51,0.611111111
0.04,0.49,0.613888889
0.05,0.5,0.616666667
0.06,0.5,0.619444444
0.07,0.49,0.622222222
0.1,0.48,0.625
0.13,0.49,0.627777778
0.13,0.47,0.630555556
0.13,0.47,0.633333333
0.13,0.47,0.636111111
0.14,0.48,0.638888889
0.14,0.49,0.641666667
0.17,0.49,0.644444444
0.19,0.48,0.647222222
0.17,0.49,0.65
0.16,0.5,0.652777778
0.16,0.5,0.655555556
0.13,0.5,0.658333333
0.08,0.48,0.661111111
0.04,0.47,0.663888889
-0.01,0.45,0.666666667
-0.04,0.45,0.669444444
-0.07,0.46,0.672222222
-0.1,0.46,0.675
-0.12,0.44,0.677777778
-0.13,0.44,0.680555556
-0.15,0.43,0.683333333
-0.14,0.43,0.686111111
-0.13,0.44,0.688888889
-0.13,0.45,0.691666667
-0.13,0.44,0.694444444
-0.13,0.44,0.697222222
-0.13,0.44,0.7
-0.14,0.44,0.702777778
-0.13,0.44,0.705555556
-0.13,0.45,0.708333333
-0.11,0.44,0.711111111
-0.12,0.44,0.713888889
-0.11,0.44,0.716666667
-0.13,0.44,0.719444444
-0.13,0.44,0.722222222
-0.13,0.45,0.725
-0.12,0.45,0.727777778
-0.13,0.44,0.730555556
-0.13,0.43,0.733333333
-0.15,0.44,0.736111111
-0.13,0.44,0.738888889
-0.13,0.44,0.741666667
-0.13,0.45,0.744444444
-0.13,0.44,0.747222222
-0.13,0.44,0.75
-0.13,0.44,0.752777778
-0.13,0.46,0.755555556
-0.13,0.45,0.758333333
-0.12,0.47,0.761111111
-0.12,0.45,0.763888889
-0.13,0.45,0.766666667
-0.13,0.44,0.769444444
-0.13,0.45,0.772222222
-0.12,0.48,0.775
-0.1,0.45,0.777777778
-0.1,0.42,0.780555556
-0.11,0.35,0.783333333
-0.1,0.27,0.786111111
-0.06,0.17,0.788888889
0.03,0.08,0.791666667
0.12,-0.02,0.794444444
0.21,-0.19,0.797222222
0.31,-0.37,0.8
0.39,-0.57,0.802777778
0.43,-0.72,0.805555556
0.4,-0.79,0.808333333
0.4,-0.79,0.811111111
0.42,-0.76,0.813888889
0.46,-0.76,0.816666667
0.49,-0.72,0.819444444
0.52,-0.67,0.822222222
0.54,-0.64,0.825
0.55,-0.6,0.827777778
0.56,-0.59,0.830555556
0.58,-0.59,0.833333333
0.6,-0.55,0.836111111
0.6,-0.54,0.838888889
0.58,-0.49,0.841666667
0.47,-0.45,0.844444444
0.31,-0.41,0.847222222
0.13,-0.36,0.85
-0.02,-0.32,0.852777778
-0.14,-0.29,0.855555556
-0.3,-0.22,0.858333333
-0.45,-0.12,0.861111111
-0.56,-0.05,0.863888889
-0.63,0.02,0.866666667
-0.69,0.08,0.869444444
-0.64,0.17,0.872222222
-0.57,0.25,0.875
-0.5,0.32,0.877777778
-0.48,0.37,0.880555556
-0.46,0.43,0.883333333
-0.45,0.47,0.886111111
-0.4,0.53,0.888888889
-0.33,0.59,0.891666667
-0.29,0.62,0.894444444
-0.28,0.65,0.897222222
-0.28,0.65,0.9
-0.28,0.66,0.902777778
-0.28,0.68,0.905555556
-0.25,0.7,0.908333333
-0.26,0.7,0.911111111
-0.26,0.72,0.913888889
-0.26,0.7,0.916666667
-0.26,0.71,0.919444444
-0.26,0.72,0.922222222
-0.26,0.75,0.925
-0.26,0.74,0.927777778
-0.26,0.74,0.930555556
-0.26,0.74,0.933333333
-0.28,0.76,0.936111111
-0.27,0.77,0.938888889
-0.27,0.79,0.941666667
-0.29,0.79,0.944444444
-0.29,0.79,0.947222222
-0.3,0.78,0.95
-0.3,0.79,0.952777778
-0.3,0.8,0.955555556
-0.3,0.81,0.958333333
-0.28,0.81,0.961111111
-0.28,0.79,0.963888889
-0.28,0.79,0.966666667
-0.31,0.8,0.969444444
-0.31,0.81,0.972222222
-0.29,0.82,0.975
-0.29,0.82,0.977777778
-0.3,0.82,0.980555556
-0.3,0.82,0.983333333
-0.32,0.82,0.986111111
-0.31,0.84,0.988888889
-0.31,0.85,0.991666667
-0.3,0.85,0.994444444
-0.3,0.84,0.997222222
-0.3,0.84,1.0
-0.3,0.86,1.002777778
-0.31,0.86,1.005555556
-0.31,0.86,1.008333333
-0.31,0.86,1.011111111
-0.28,0.86,1.013888889
-0.3,0.84,1.016666667
-0.31,0.84,1.019444444
-0.31,0.86,1.022222222
-0.29,0.86,1.025
-0.3,0.85,1.027777778
-0.31,0.85,1.030555556
-0.33,0.85,1.033333333
-0.32,0.85,1.036111111
-0.32,0.86,1.038888889
-0.31,0.86,1.041666667
-0.31,0.86,1.044444444
-0.3,0.86,1.047222222
-0.31,0.86,1.05
-0.33,0.85,1.052777778
-0.3,0.87,1.055555556
-0.29,0.89,1.058333333
-0.29,0.88,1.061111111
-0.28,0.86,1.063888889
-0.29,0.86,1.066666667
-0.3,0.84,1.069444444
-0.28,0.85,1.072222222
-0.27,0.86,1.075
-0.27,0.84,1.077777778
-0.26,0.82,1.080555556
-0.28,0.82,1.083333333
-0.28,0.81,1.086111111
-0.28,0.81,1.088888889
-0.25,0.82,1.091666667
-0.24,0.81,1.094444444
-0.24,0.79,1.097222222
-0.25,0.77,1.1
-0.25,0.77,1.102777778
-0.23,0.77,1.105555556
-0.22,0.78,1.108333333
-0.19,0.77,1.111111111
-0.19,0.74,1.113888889
-0.19,0.72,1.116666667
-0.19,0.72,1.119444444
-0.19,0.72,1.122222222
-0.16,0.72,1.125
-0.14,0.7,1.127777778
-0.14,0.69,1.130555556
-0.14,0.66,1.133333333
-0.15,0.66,1.136111111
-0.14,0.65,1.138888889
-0.13,0.65,1.141666667
-0.12,0.64,1.144444444
-0.1,0.62,1.147222222
-0.11,0.61,1.15
-0.13,0.6,1.152777778
-0.11,0.6,1.155555556
-0.09,0.6,1.158333333
-0.07,0.59,1.161111111
-0.07,0.59,1.163888889
-0.07,0.58,1.166666667
-0.08,0.58,1.169444444
-0.07,0.59,1.172222222
-0.07,0.59,1.175
-0.07,0.59,1.177777778
-0.06,0.58,1.180555556
-0.07,0.57,1.183333333
-0.07,0.56,1.186111111
-0.07,0.57,1.188888889
-0.04,0.57,1.191666667
-0.06,0.57,1.194444444
-0.07,0.56,1.197222222
-0.07,0.55,1.2
-0.08,0.56,1.202777778
-0.07,0.56,1.205555556
-0.07,0.57,1.208333333
-0.07,0.57,1.211111111
-0.05,0.57,1.213888889
-0.07,0.55,1.216666667
-0.1,0.55,1.219444444
-0.09,0.57,1.222222222
-0.07,0.59,1.225
-0.07,0.58,1.227777778
-0.08,0.59,1.230555556
-0.08,0.57,1.233333333
-0.09,0.57,1.236111111
-0.08,0.59,1.238888889
-0.09,0.6,1.241666667
-0.07,0.59,1.244444444
-0.08,0.59,1.247222222
-0.1,0.58,1.25
-0.1,0.59,1.252777778
-0.1,0.59,1.255555556
-0.1,0.6,1.258333333
-0.1,0.6,1.261111111
-0.1,0.59,1.263888889
-0.11,0.59,1.266666667
-0.11,0.59,1.269444444
-0.11,0.6,1.272222222
-0.13,0.62,1.275
-0.11,0.61,1.277777778
-0.11,0.62,1.280555556
-0.11,0.61,1.283333333
-0.13,0.62,1.286111111
-0.14,0.64,1.288888889
-0.13,0.63,1.291666667
-0.13,0.64,1.294444444
-0.13,0.62,1.297222222
-0.16,0.62,1.3
-0.19,0.61,1.302777778
-0.18,0.62,1.305555556
-0.16,0.62,1.308333333
-0.15,0.63,1.311111111
-0.16,0.61,1.313888889
-0.17,0.62,1.316666667
-0.19,0.61,1.319444444
-0.19,0.62,1.322222222
-0.19,0.62,1.325
-0.17,0.64,1.327777778
-0.18,0.63,1.330555556
-0.2,0.62,1.333333333
-0.22,0.62,1.336111111
-0.21,0.62,1.338888889
-0.2,0.63,1.341666667
-0.19,0.62,1.344444444
-0.2,0.62,1.347222222
-0.2,0.59,1.35
-0.22,0.6,1.352777778
-0.22,0.6,1.355555556
-0.2,0.62,1.358333333
-0.19,0.6,1.361111111
-0.2,0.59,1.363888889
-0.22,0.58,1.366666667
-0.22,0.58,1.369444444
-0.2,0.59,1.372222222
-0.2,0.62,1.375
-0.19,0.59,1.377777778
-0.19,0.57,1.380555556
-0.2,0.58,1.383333333
-0.21,0.58,1.386111111
-0.2,0.59,1.388888889
-0.18,0.59,1.391666667
-0.17,0.59,1.394444444
-0.17,0.59,1.397222222
-0.17,0.57,1.4
-0.19,0.58,1.402777778
-0.19,0.59,1.405555556
-0.16,0.59,1.408333333
-0.14,0.59,1.411111111
-0.17,0.58,1.413888889
-0.17,0.57,1.416666667
-0.18,0.57,1.419444444
-0.17,0.58,1.422222222
-0.16,0.57,1.425
-0.15,0.57,1.427777778
-0.16,0.57,1.430555556
-0.16,0.56,1.433333333
-0.16,0.55,1.436111111
-0.16,0.57,1.438888889
-0.15,0.57,1.441666667
-0.14,0.57,1.444444444
-0.16,0.57,1.447222222
-0.16,0.55,1.45
-0.17,0.57,1.452777778
-0.17,0.57,1.455555556
-0.16,0.59,1.458333333
-0.15,0.57,1.461111111
-0.14,0.58,1.463888889
-0.14,0.57,1.466666667
-0.15,0.56,1.469444444
-0.16,0.56,1.472222222
-0.13,0.57,1.475
-0.14,0.57,1.477777778
-0.13,0.55,1.480555556
-0.14,0.54,1.483333333
-0.14,0.54,1.486111111
-0.14,0.55,1.488888889
-0.14,0.57,1.491666667
-0.13,0.55,1.494444444
-0.13,0.55,1.497222222
-0.13,0.54,1.5
-0.14,0.55,1.502777778
-0.13,0.56,1.505555556
-0.13,0.58,1.508333333
-0.11,0.56,1.511111111
-0.11,0.56,1.513888889
-0.13,0.55,1.516666667
-0.13,0.55,1.519444444
-0.11,0.55,1.522222222
-0.1,0.57,1.525
-0.08,0.57,1.527777778
-0.07,0.57,1.530555556
-0.04,0.57,1.533333333
-0.04,0.57,1.536111111
-0.04,0.59,1.538888889
-0.03,0.61,1.541666667
-0.01,0.62,1.544444444
0.0,0.6,1.547222222
0.01,0.59,1.55
0.01,0.57,1.552777778
0.04,0.59,1.555555556
0.07,0.59,1.558333333
0.09,0.59,1.561111111
0.1,0.58,1.563888889
0.09,0.57,1.566666667
0.08,0.56,1.569444444
0.1,0.57,1.572222222
0.13,0.59,1.575
0.14,0.57,1.577777778
0.14,0.57,1.580555556
0.14,0.57,1.583333333
0.13,0.55,1.586111111
0.1,0.56,1.588888889
0.05,0.55,1.591666667
0.01,0.54,1.594444444
-0.03,0.54,1.597222222
-0.07,0.52,1.6
-0.1,0.53,1.602777778
-0.13,0.53,1.605555556
-0.16,0.53,1.608333333
-0.16,0.53,1.611111111
-0.14,0.52,1.613888889
-0.14,0.52,1.616666667
-0.16,0.51,1.619444444
-0.16,0.52,1.622222222
-0.16,0.52,1.625
-0.15,0.52,1.627777778
-0.14,0.5,1.630555556
-0.15,0.49,1.633333333
-0.17,0.5,1.636111111
-0.16,0.5,1.638888889
-0.15,0.5,1.641666667
-0.14,0.5,1.644444444
-0.15,0.5,1.647222222
-0.15,0.48,1.65
-0.16,0.49,1.652777778
-0.16,0.5,1.655555556
-0.15,0.5,1.658333333
-0.14,0.5,1.661111111
-0.13,0.49,1.663888889
-0.16,0.47,1.666666667
-0.16,0.49,1.669444444
-0.15,0.5,1.672222222
-0.14,0.5,1.675
-0.12,0.49,1.677777778
-0.14,0.47,1.680555556
-0.14,0.45,1.683333333
-0.16,0.47,1.686111111
-0.16,0.47,1.688888889
-0.13,0.47,1.691666667
-0.13,0.48,1.694444444
-0.13,0.47,1.697222222
-0.14,0.47,1.7
-0.16,0.48,1.702777778
-0.15,0.47,1.705555556
-0.13,0.44,1.708333333
-0.13,0.37,1.711111111
-0.1,0.27,1.713888889
-0.04,0.13,1.716666667
0.04,-0.01,1.719444444
0.14,-0.18,1.722222222
0.26,-0.4,1.725
0.37,-0.61,1.727777778
0.37,-0.76,1.730555556
0.31,-0.8,1.733333333
0.31,-0.78,1.736111111
0.37,-0.74,1.738888889
0.42,-0.71,1.741666667
0.47,-0.69,1.744444444
0.49,-0.67,1.747222222
0.48,-0.66,1.75
0.47,-0.63,1.752777778
0.5,-0.59,1.755555556
0.53,-0.57,1.758333333
0.54,-0.54,1.761111111
0.52,-0.52,1.763888889
0.4,-0.47,1.766666667
0.2,-0.44,1.769444444
0.02,-0.37,1.772222222
-0.12,-0.3,1.775
-0.28,-0.25,1.777777778
-0.43,-0.18,1.780555556
-0.57,-0.11,1.783333333
-0.66,-0.02,1.786111111
-0.69,0.07,1.788888889
-0.66,0.15,1.791666667
-0.57,0.24,1.794444444
-0.49,0.31,1.797222222
-0.46,0.35,1.8
-0.44,0.4,1.802777778
-0.4,0.47,1.805555556
-0.35,0.54,1.808333333
-0.28,0.57,1.811111111
-0.25,0.6,1.813888889
-0.25,0.62,1.816666667
-0.25,0.62,1.819444444
-0.24,0.65,1.822222222
-0.23,0.67,1.825
-0.22,0.68,1.827777778
-0.22,0.68,1.830555556
-0.22,0.69,1.833333333
-0.24,0.69,1.836111111
-0.23,0.69,1.838888889
-0.22,0.72,1.841666667
-0.2,0.72,1.844444444
-0.22,0.72,1.847222222
-0.24,0.72,1.85
-0.25,0.71,1.852777778
-0.26,0.72,1.855555556
-0.24,0.74,1.858333333
-0.23,0.74,1.861111111
-0.25,0.74,1.863888889
-0.25,0.74,1.866666667
-0.26,0.74,1.869444444
-0.25,0.76,1.872222222
-0.25,0.77,1.875
-0.25,0.77,1.877777778
-0.25,0.77,1.880555556
-0.25,0.76,1.883333333
-0.27,0.77,1.886111111
-0.26,0.79,1.888888889
-0.26,0.79,1.891666667
-0.25,0.79,1.894444444
-0.27,0.79,1.897222222
-0.26,0.77,1.9
-0.28,0.77,1.902777778
-0.28,0.78,1.905555556
-0.26,0.79,1.908333333
-0.26,0.79,1.911111111
-0.25,0.79,1.913888889
-0.26,0.77,1.916666667
-0.25,0.78,1.919444444
-0.26,0.79,1.922222222
-0.25,0.82,1.925
-0.26,0.81,1.927777778
-0.25,0.79,1.930555556
-0.26,0.79,1.933333333
-0.26,0.82,1.936111111
-0.27,0.82,1.938888889
-0.26,0.82,1.941666667
-0.25,0.82,1.944444444
-0.25,0.81,1.947222222
-0.26,0.81,1.95
-0.28,0.8,1.952777778
-0.27,0.8,1.955555556
-0.26,0.82,1.958333333
-0.25,0.81,1.961111111
-0.24,0.79,1.963888889
-0.25,0.78,1.966666667
-0.26,0.79,1.969444444
-0.25,0.79,1.972222222
-0.23,0.8,1.975
-0.22,0.79,1.977777778
-0.22,0.79,1.980555556
-0.22,0.77,1.983333333
-0.23,0.77,1.986111111
-0.22,0.78,1.988888889
-0.2,0.77,1.991666667
-0.19,0.76,1.994444444
-0.19,0.75,1.997222222
-0.19,0.74,2.0
-0.19,0.72,2.002777778
-0.18,0.74,2.005555556
-0.17,0.72,2.008333333
-0.16,0.71,2.011111111
-0.15,0.69,2.013888889
-0.16,0.66,2.016666667
-0.15,0.64,2.019444444
-0.13,0.64,2.022222222
-0.12,0.64,2.025
-0.1,0.62,2.027777778
-0.1,0.6,2.030555556
-0.11,0.59,2.033333333
-0.12,0.57,2.036111111
-0.1,0.56,2.038888889
-0.09,0.55,2.041666667
-0.07,0.54,2.044444444
-0.08,0.52,2.047222222
-0.07,0.51,2.05
-0.07,0.5,2.052777778
-0.07,0.5,2.055555556
-0.05,0.51,2.058333333
-0.04,0.5,2.061111111
-0.05,0.48,2.063888889
-0.05,0.47,2.066666667
-0.06,0.45,2.069444444
-0.05,0.45,2.072222222
-0.04,0.46,2.075
-0.03,0.44,2.077777778
-0.03,0.44,2.080555556
-0.04,0.43,2.083333333
-0.05,0.42,2.086111111
-0.04,0.43,2.088888889
-0.04,0.43,2.091666667
-0.03,0.44,2.094444444
-0.03,0.42,2.097222222
-0.05,0.42,2.1
-0.07,0.42,2.102777778
-0.06,0.44,2.105555556
-0.05,0.44,2.108333333
-0.04,0.44,2.111111111
-0.07,0.44,2.113888889
-0.05,0.43,2.116666667
-0.06,0.42,2.119444444
-0.07,0.43,2.122222222
-0.05,0.44,2.125
-0.05,0.44,2.127777778
-0.06,0.42,2.130555556
-0.07,0.42,2.133333333
-0.08,0.42,2.136111111
-0.08,0.44,2.138888889
-0.08,0.45,2.141666667
-0.08,0.45,2.144444444
-0.09,0.44,2.147222222
-0.1,0.44,2.15
-0.12,0.44,2.152777778
-0.1,0.45,2.155555556
-0.08,0.47,2.158333333
-0.07,0.48,2.161111111
-0.09,0.47,2.163888889
-0.1,0.47,2.166666667
-0.11,0.47,2.169444444
-0.11,0.46,2.172222222
-0.11,0.46,2.175
-0.11,0.47,2.177777778
-0.13,0.45,2.180555556
-0.13,0.44,2.183333333
-0.14,0.44,2.186111111
-0.14,0.45,2.188888889
-0.15,0.47,2.191666667
-0.15,0.46,2.194444444
-0.14,0.45,2.197222222
-0.16,0.44,2.2
-0.19,0.45,2.202777778
-0.17,0.47,2.205555556
-0.17,0.48,2.208333333
-0.19,0.47,2.211111111
-0.22,0.47,2.213888889
-0.26,0.44,2.216666667
-0.31,0.44,2.219444444
-0.33,0.42,2.222222222
-0.31,0.38,2.225
-0.3,0.34,2.227777778
-0.28,0.31,2.230555556
-0.26,0.27,2.233333333
-0.22,0.23,2.236111111
-0.17,0.21,2.238888889
-0.08,0.2,2.241666667
0.04,0.18,2.244444444
0.14,0.17,2.247222222
0.23,0.19,2.25
0.34,0.22,2.252777778
0.47,0.25,2.255555556
0.57,0.3,2.258333333
0.66,0.33,2.261111111
0.73,0.35,2.263888889
0.73,0.37,2.266666667
0.64,0.42,2.269444444
0.63,0.46,2.272222222
0.72,0.52,2.275
0.83,0.57,2.277777778
0.86,0.64,2.280555556
0.78,0.67,2.283333333
0.62,0.69,2.286111111
0.46,0.72,2.288888889
0.22,0.76,2.291666667
-0.05,0.79,2.294444444
-0.34,0.81,2.297222222
-0.54,0.82,2.3
-0.57,0.82,2.302777778
-0.49,0.81,2.305555556
-0.4,0.76,2.308333333
-0.31,0.71,2.311111111
-0.28,0.66,2.313888889
-0.26,0.59,2.316666667
-0.26,0.54,2.319444444
-0.25,0.48,2.322222222
-0.28,0.45,2.325
-0.28,0.44,2.327777778
-0.27,0.41,2.330555556
-0.28,0.4,2.333333333
-0.28,0.39,2.336111111
-0.26,0.39,2.338888889
-0.27,0.39,2.341666667
-0.26,0.37,2.344444444
-0.28,0.37,2.347222222
-0.28,0.35,2.35
-0.29,0.35,2.352777778
-0.31,0.35,2.355555556
-0.3,0.37,2.358333333
-0.28,0.36,2.361111111
-0.31,0.34,2.363888889
-0.31,0.34,2.366666667
-0.33,0.34,2.369444444
-0.31,0.35,2.372222222
-0.31,0.37,2.375
-0.31,0.35,2.377777778
-0.33,0.34,2.380555556
-0.33,0.32,2.383333333
-0.34,0.31,2.386111111
-0.34,0.32,2.388888889
-0.33,0.32,2.391666667
-0.31,0.31,2.394444444
-0.33,0.3,2.397222222
-0.34,0.3,2.4
-0.36,0.3,2.402777778
-0.36,0.3,2.405555556
-0.35,0.32,2.408333333
-0.34,0.3,2.411111111
-0.36,0.29,2.413888889
-0.36,0.29,2.416666667
-0.37,0.29,2.419444444
-0.35,0.3,2.422222222
-0.34,0.29,2.425
-0.33,0.29,2.427777778
-0.33,0.27,2.430555556
-0.34,0.27,2.433333333
-0.35,0.25,2.436111111
-0.34,0.25,2.438888889
-0.34,0.25,2.441666667
-0.34,0.24,2.444444444
-0.34,0.23,2.447222222
-0.34,0.21,2.45
-0.35,0.2,2.452777778
-0.34,0.2,2.455555556
-0.33,0.2,2.458333333
-0.32,0.18,2.461111111
-0.33,0.17,2.463888889
-0.34,0.17,2.466666667
-0.34,0.15,2.469444444
-0.34,0.16,2.472222222
-0.33,0.15,2.475
-0.31,0.15,2.477777778
-0.33,0.15,2.480555556
-0.32,0.13,2.483333333
-0.32,0.12,2.486111111
-0.31,0.11,2.488888889
-0.3,0.12,2.491666667
-0.28,0.1,2.494444444
-0.28,0.1,2.497222222
-0.29,0.08,2.5
-0.3,0.08,2.502777778
-0.28,0.08,2.505555556
-0.26,0.1,2.508333333
-0.25,0.11,2.511111111
-0.25,0.1,2.513888889
-0.25,0.09,2.516666667
-0.25,0.1,2.519444444
-0.25,0.11,2.522222222
-0.25,0.13,2.525
-0.22,0.14,2.527777778
-0.2,0.13,2.530555556
-0.22,0.15,2.533333333
-0.2,0.15,2.536111111
-0.19,0.18,2.538888889
-0.16,0.2,2.541666667
-0.13,0.2,2.544444444
-0.13,0.22,2.547222222
-0.13,0.23,2.55
-0.11,0.24,2.552777778
-0.08,0.27,2.555555556
-0.05,0.3,2.558333333
-0.04,0.3,2.561111111
-0.01,0.3,2.563888889
-0.01,0.3,2.566666667
-0.01,0.3,2.569444444
0.02,0.32,2.572222222
0.04,0.33,2.575
0.04,0.35,2.577777778
0.04,0.34,2.580555556
0.05,0.34,2.583333333
0.05,0.35,2.586111111
0.08,0.37,2.588888889
0.08,0.38,2.591666667
0.09,0.37,2.594444444
0.06,0.37,2.597222222
0.01,0.35,2.6
-0.04,0.35,2.602777778
-0.07,0.37,2.605555556
-0.09,0.36,2.608333333
-0.11,0.37,2.611111111
-0.17,0.36,2.613888889
-0.22,0.35,2.616666667
-0.26,0.35,2.619444444
-0.25,0.37,2.622222222
-0.23,0.35,2.625
-0.22,0.35,2.627777778
-0.23,0.35,2.630555556
-0.23,0.35,2.633333333
-0.25,0.35,2.636111111
-0.24,0.37,2.638888889
-0.23,0.38,2.641666667
-0.22,0.36,2.644444444
-0.22,0.35,2.647222222
-0.23,0.35,2.65
-0.25,0.34,2.652777778
-0.24,0.34,2.655555556
-0.23,0.35,2.658333333
-0.23,0.35,2.661111111
-0.25,0.35,2.663888889
-0.22,0.33,2.666666667
-0.23,0.35,2.669444444
-0.23,0.35,2.672222222
-0.22,0.35,2.675
-0.22,0.35,2.677777778
-0.23,0.35,2.680555556
-0.25,0.35,2.683333333
-0.23,0.35,2.686111111
-0.22,0.35,2.688888889
-0.22,0.37,2.691666667
-0.2,0.37,2.694444444
-0.21,0.36,2.697222222
-0.22,0.35,2.7
-0.22,0.35,2.702777778
-0.21,0.35,2.705555556
-0.19,0.35,2.708333333
-0.18,0.35,2.711111111
-0.18,0.35,2.713888889
-0.19,0.32,2.716666667
-0.21,0.34,2.719444444
-0.19,0.34,2.722222222
-0.17,0.36,2.725
-0.17,0.35,2.727777778
-0.17,0.35,2.730555556
-0.19,0.33,2.733333333
-0.19,0.33,2.736111111
-0.17,0.35,2.738888889
-0.16,0.36,2.741666667
-0.16,0.35,2.744444444
-0.16,0.35,2.747222222
-0.19,0.35,2.75
-0.19,0.34,2.752777778
-0.19,0.35,2.755555556
-0.16,0.35,2.758333333
-0.16,0.34,2.761111111
-0.16,0.33,2.763888889
-0.17,0.34,2.766666667
-0.17,0.32,2.769444444
-0.17,0.34,2.772222222
-0.16,0.35,2.775
-0.15,0.35,2.777777778
-0.13,0.35,2.780555556
-0.15,0.33,2.783333333
-0.17,0.33,2.786111111
-0.17,0.35,2.788888889
-0.16,0.35,2.791666667
-0.14,0.35,2.794444444
-0.14,0.34,2.797222222
-0.16,0.33,2.8
-0.16,0.35,2.802777778
-0.16,0.35,2.805555556
-0.14,0.37,2.808333333
-0.14,0.35,2.811111111
-0.13,0.34,2.813888889
-0.13,0.32,2.816666667
-0.16,0.32,2.819444444
-0.14,0.32,2.822222222
-0.13,0.35,2.825
-0.13,0.35,2.827777778
-0.13,0.34,2.830555556
-0.14,0.33,2.833333333
-0.14,0.33,2.836111111
-0.15,0.33,2.838888889
-0.13,0.34,2.841666667
-0.13,0.33,2.844444444
-0.13,0.32,2.847222222
-0.15,0.32,2.85
-0.14,0.32,2.852777778
-0.14,0.34,2.855555556
-0.14,0.34,2.858333333
-0.13,0.34,2.861111111
-0.13,0.33,2.863888889
-0.14,0.32,2.866666667
-0.16,0.32,2.869444444
-0.14,0.32,2.872222222
-0.14,0.34,2.875
-0.13,0.32,2.877777778
-0.13,0.32,2.880555556
-0.14,0.31,2.883333333
-0.14,0.32,2.886111111
-0.13,0.32,2.888888889
-0.13,0.33,2.891666667
-0.12,0.32,2.894444444
-0.13,0.32,2.897222222
-0.13,0.3,2.9
-0.15,0.32,2.902777778
-0.15,0.32,2.905555556
-0.13,0.34,2.908333333
-0.13,0.33,2.911111111
-0.13,0.33,2.913888889
-0.14,0.32,2.916666667
-0.14,0.32,2.919444444
-0.14,0.32,2.922222222
-0.13,0.32,2.925
-0.12,0.32,2.927777778
-0.12,0.32,2.930555556
-0.13,0.3,2.933333333
-0.13,0.3,2.936111111
-0.15,0.3,2.938888889
-0.13,0.32,2.941666667
-0.14,0.32,2.944444444
-0.13,0.31,2.947222222
-0.13,0.32,2.95
-0.14,0.3,2.952777778
-0.15,0.3,2.955555556
-0.14,0.31,2.958333333
-0.13,0.32,2.961111111
-0.13,0.32,2.963888889
-0.13,0.3,2.966666667
-0.16,0.32,2.969444444
-0.15,0.33,2.972222222
-0.13,0.33,2.975
-0.13,0.32,2.977777778
-0.13,0.3,2.980555556
-0.14,0.29,2.983333333
-0.16,0.29,2.986111111
-0.16,0.3,2.988888889
-0.14,0.3,2.991666667
-0.13,0.31,2.994444444
-0.12,0.3,2.997222222
-0.14,0.29,3.0
-0.16,0.29,3.002777778
-0.16,0.3,3.005555556
-0.14,0.3,3.008333333
-0.13,0.3,3.011111111
-0.13,0.29,3.013888889
-0.14,0.29,3.016666667
-0.15,0.3,3.019444444
-0.14,0.3,3.022222222
-0.14,0.3,3.025
-0.13,0.32,3.027777778
-0.13,0.3,3.030555556
-0.14,0.3,3.033333333
-0.14,0.3,3.036111111
-0.13,0.3,3.038888889
-0.13,0.3,3.041666667
-0.13,0.3,3.044444444
-0.13,0.3,3.047222222
-0.15,0.27,3.05
-0.14,0.28,3.052777778
-0.15,0.29,3.055555556
-0.13,0.29,3.058333333
-0.14,0.29,3.061111111
-0.13,0.27,3.063888889
-0.13,0.28,3.066666667
-0.16,0.27,3.069444444
-0.14,0.29,3.072222222
-0.13,0.3,3.075
-0.14,0.3,3.077777778
-0.13,0.29,3.080555556
-0.13,0.28,3.083333333
-0.15,0.29,3.086111111
-0.14,0.29,3.088888889
-0.14,0.29,3.091666667
-0.13,0.29,3.094444444
-0.13,0.27,3.097222222
-0.13,0.27,3.1
-0.14,0.27,3.102777778
-0.14,0.28,3.105555556
-0.13,0.29,3.108333333
-0.13,0.29,3.111111111
-0.13,0.27,3.113888889
-0.13,0.27,3.116666667
-0.14,0.27,3.119444444
-0.13,0.27,3.122222222
-0.15,0.29,3.125
-0.13,0.28,3.127777778
-0.13,0.28,3.130555556
-0.13,0.27,3.133333333
-0.14,0.28,3.136111111
-0.14,0.3,3.138888889
-0.16,0.3,3.141666667
-0.14,0.3,3.144444444
-0.15,0.29,3.147222222
-0.14,0.29,3.15
-0.15,0.27,3.152777778
-0.15,0.29,3.155555556
-0.14,0.29,3.158333333
-0.13,0.28,3.161111111
-0.14,0.27,3.163888889
-0.14,0.26,3.166666667
-0.15,0.26,3.169444444
-0.16,0.27,3.172222222
-0.14,0.29,3.175
-0.13,0.27,3.177777778
-0.13,0.26,3.180555556
-0.14,0.27,3.183333333
-0.16,0.27,3.186111111
-0.16,0.27,3.188888889
-0.14,0.28,3.191666667
-0.13,0.27,3.194444444
-0.15,0.27,3.197222222
-0.16,0.27,3.2
-0.19,0.27,3.202777778
-0.16,0.27,3.205555556
-0.14,0.29,3.208333333
-0.13,0.28,3.211111111
-0.15,0.27,3.213888889
-0.16,0.25,3.216666667
-0.16,0.25,3.219444444
-0.17,0.27,3.222222222
-0.14,0.27,3.225
-0.13,0.27,3.227777778
-0.15,0.27,3.230555556
-0.16,0.25,3.233333333
-0.17,0.26,3.236111111
-0.16,0.27,3.238888889
-0.16,0.27,3.241666667
-0.15,0.27,3.244444444
-0.14,0.27,3.247222222
-0.16,0.27,3.25
-0.16,0.26,3.252777778
-0.16,0.28,3.255555556
-0.16,0.29,3.258333333
-0.15,0.27,3.261111111
-0.16,0.26,3.263888889
-0.16,0.25,3.266666667
-0.16,0.25,3.269444444
-0.15,0.27,3.272222222
-0.15,0.26,3.275
-0.15,0.26,3.277777778
-0.14,0.26,3.280555556
-0.16,0.25,3.283333333
-0.17,0.25,3.286111111
-0.17,0.27,3.288888889
-0.16,0.27,3.291666667
-0.17,0.27,3.294444444
-0.16,0.25,3.297222222
-0.16,0.25,3.3
-0.17,0.25,3.302777778
-0.16,0.26,3.305555556
-0.16,0.26,3.308333333
-0.14,0.27,3.311111111
-0.14,0.26,3.313888889
-0.16,0.25,3.316666667
-0.16,0.25,3.319444444
-0.16,0.27,3.322222222
-0.16,0.27,3.325
-0.16,0.26,3.327777778
-0.14,0.25,3.330555556
-0.16,0.25,3.333333333
-0.17,0.24,3.336111111
-0.17,0.25,3.338888889
-0.16,0.25,3.341666667
-0.16,0.24,3.344444444
-0.17,0.24,3.347222222
-0.17,0.24,3.35
-0.16,0.25,3.352777778
-0.16,0.25,3.355555556
-0.14,0.27,3.358333333
-0.14,0.25,3.361111111
-0.16,0.25,3.363888889
-0.16,0.24,3.366666667
-0.17,0.25,3.369444444
-0.16,0.27,3.372222222
-0.16,0.26,3.375
-0.15,0.25,3.377777778
-0.16,0.25,3.380555556
-0.16,0.25,3.383333333
-0.17,0.25,3.386111111
-0.17,0.25,3.388888889
-0.17,0.25,3.391666667
-0.16,0.25,3.394444444
-0.17,0.24,3.397222222
-0.18,0.22,3.4
-0.18,0.22,3.402777778
-0.18,0.25,3.405555556
-0.18,0.24,3.408333333
-0.16,0.25,3.411111111
-0.18,0.23,3.413888889
-0.18,0.23,3.416666667
-0.19,0.22,3.419444444
-0.19,0.23,3.422222222
-0.19,0.25,3.425
-0.17,0.25,3.427777778
-0.17,0.24,3.430555556
-0.17,0.23,3.433333333
-0.17,0.24,3.436111111
-0.17,0.25,3.438888889
-0.17,0.26,3.441666667
-0.16,0.24,3.444444444
-0.17,0.22,3.447222222
-0.18,0.22,3.45
-0.19,0.22,3.452777778
-0.19,0.23,3.455555556
-0.17,0.24,3.458333333
-0.17,0.23,3.461111111
-0.17,0.22,3.463888889
-0.18,0.22,3.466666667
-0.17,0.22,3.469444444
-0.16,0.24,3.472222222
-0.13,0.24,3.475
-0.13,0.25,3.477777778
-0.13,0.24,3.480555556
-0.13,0.25,3.483333333
-0.13,0.26,3.486111111
-0.13,0.29,3.488888889
-0.11,0.29,3.491666667
-0.09,0.29,3.494444444
-0.09,0.29,3.497222222
-0.07,0.27,3.5
-0.05,0.27,3.502777778
-0.04,0.28,3.505555556
-0.01,0.29,3.508333333
-0.01,0.27,3.511111111
0.01,0.25,3.513888889
0.01,0.24,3.516666667
-0.01,0.23,3.519444444
0.02,0.23,3.522222222
0.04,0.24,3.525
0.06,0.25,3.527777778
0.06,0.24,3.530555556
0.07,0.22,3.533333333
0.06,0.23,3.536111111
0.08,0.24,3.538888889
0.05,0.26,3.541666667
0.04,0.25,3.544444444
-0.02,0.24,3.547222222
-0.07,0.22,3.55
-0.11,0.22,3.552777778
-0.13,0.22,3.555555556
-0.16,0.23,3.558333333
-0.19,0.22,3.561111111
-0.22,0.2,3.563888889
-0.25,0.18,3.566666667
-0.25,0.17,3.569444444
-0.24,0.17,3.572222222
-0.23,0.18,3.575
-0.23,0.18,3.577777778
-0.24,0.18,3.580555556
-0.24,0.17,3.583333333
-0.25,0.17,3.586111111
-0.25,0.18,3.588888889
-0.25,0.18,3.591666667
-0.22,0.18,3.594444444
-0.23,0.18,3.597222222
-0.24,0.18,3.6
-0.25,0.17,3.602777778
-0.25,0.19,3.605555556
-0.23,0.18,3.608333333
-0.22,0.18,3.611111111
-0.22,0.17,3.613888889
-0.23,0.17,3.616666667
-0.23,0.17,3.619444444
-0.22,0.17,3.622222222
-0.22,0.17,3.625
-0.21,0.17,3.627777778
-0.22,0.17,3.630555556
-0.22,0.16,3.633333333
-0.25,0.15,3.636111111
-0.23,0.17,3.638888889
-0.23,0.16,3.641666667
-0.22,0.15,3.644444444
-0.23,0.15,3.647222222
-0.22,0.14,3.65
-0.23,0.15,3.652777778
-0.22,0.15,3.655555556
-0.22,0.17,3.658333333
-0.2,0.18,3.661111111
-0.2,0.17,3.663888889
-0.22,0.12,3.666666667
-0.22,0.07,3.669444444
-0.19,-0.01,3.672222222
-0.13,-0.08,3.675
-0.05,-0.2,3.677777778
0.04,-0.32,3.680555556
0.13,-0.47,3.683333333
0.21,-0.66,3.686111111
0.32,-0.84,3.688888889
0.36,-0.99,3.691666667
0.33,-1.06,3.694444444
0.3,-1.06,3.697222222
0.31,-1.04,3.7
0.35,-1.02,3.702777778
0.4,-0.99,3.705555556
0.44,-0.96,3.708333333
0.45,-0.94,3.711111111
0.44,-0.91,3.713888889
0.43,-0.88,3.716666667
0.45,-0.87,3.719444444
0.49,-0.85,3.722222222
0.49,-0.83,3.725
0.5,-0.8,3.727777778
0.51,-0.79,3.730555556
0.46,-0.74,3.733333333
0.36,-0.71,3.736111111
0.2,-0.67,3.738888889
0.05,-0.62,3.741666667
-0.05,-0.6,3.744444444
-0.19,-0.56,3.747222222
-0.39,-0.54,3.75
-0.58,-0.46,3.752777778
-0.72,-0.37,3.755555556
-0.76,-0.3,3.758333333
-0.78,-0.23,3.761111111
-0.75,-0.17,3.763888889
-0.69,-0.12,3.766666667
-0.65,-0.03,3.769444444
-0.6,0.02,3.772222222
-0.58,0.08,3.775
-0.54,0.13,3.777777778
-0.5,0.17,3.780555556
-0.46,0.2,3.783333333
-0.45,0.25,3.786111111
-0.42,0.3,3.788888889
-0.39,0.33,3.791666667
-0.37,0.34,3.794444444
-0.37,0.34,3.797222222
-0.38,0.35,3.8
-0.39,0.35,3.802777778
-0.37,0.37,3.805555556
-0.37,0.38,3.808333333
-0.37,0.38,3.811111111
-0.38,0.37,3.813888889
-0.38,0.37,3.816666667
-0.39,0.39,3.819444444
-0.39,0.39,3.822222222
-0.37,0.4,3.825
-0.37,0.4,3.827777778
-0.37,0.4,3.830555556
-0.39,0.4,3.833333333
-0.4,0.4,3.836111111
-0.4,0.42,3.838888889
-0.39,0.43,3.841666667
-0.39,0.42,3.844444444
-0.4,0.43,3.847222222
-0.41,0.42,3.85
-0.42,0.42,3.852777778
-0.42,0.43,3.855555556
-0.39,0.45,3.858333333
-0.39,0.44,3.861111111
-0.39,0.43,3.863888889
-0.39,0.43,3.866666667
-0.41,0.42,3.869444444
-0.42,0.42,3.872222222
-0.4,0.44,3.875
-0.41,0.42,3.877777778
-0.41,0.42,3.880555556
-0.4,0.42,3.883333333
-0.4,0.42,3.886111111
-0.4,0.42,3.888888889
-0.4,0.45,3.891666667
-0.4,0.43,3.894444444
-0.4,0.44,3.897222222
-0.4,0.42,3.9
-0.42,0.44,3.902777778
-0.4,0.44,3.905555556
-0.4,0.45,3.908333333
-0.4,0.45,3.911111111
-0.4,0.45,3.913888889
-0.41,0.44,3.916666667
-0.42,0.43,3.919444444
-0.41,0.44,3.922222222
-0.41,0.45,3.925
-0.41,0.44,3.927777778
-0.42,0.43,3.930555556
-0.42,0.42,3.933333333
-0.42,0.42,3.936111111
-0.42,0.44,3.938888889
-0.4,0.44,3.941666667
-0.39,0.43,3.944444444
-0.4,0.41,3.947222222
-0.41,0.42,3.95
-0.4,0.4,3.952777778
-0.4,0.42,3.955555556
-0.39,0.43,3.958333333
-0.4,0.42,3.961111111
-0.4,0.42,3.963888889
-0.4,0.4,3.966666667
-0.4,0.4,3.969444444
-0.4,0.41,3.972222222
-0.39,0.42,3.975
-0.37,0.41,3.977777778
-0.37,0.39,3.980555556
-0.37,0.37,3.983333333
-0.37,0.37,3.986111111
-0.39,0.37,3.988888889
-0.37,0.39,3.991666667
-0.36,0.37,3.994444444
-0.36,0.35,3.997222222
-0.36,0.35,4.0
-0.36,0.34,4.002777778
-0.34,0.34,4.005555556
-0.34,0.35,4.008333333
-0.33,0.34,4.011111111
-0.31,0.32,4.013888889
-0.31,0.3,4.016666667
-0.31,0.3,4.019444444
-0.31,0.3,4.022222222
-0.3,0.31,4.025
-0.28,0.29,4.027777778
-0.28,0.27,4.030555556
-0.28,0.26,4.033333333
-0.28,0.25,4.036111111
-0.27,0.24,4.038888889
-0.23,0.24,4.041666667
-0.24,0.22,4.044444444
-0.23,0.2,4.047222222
-0.23,0.18,4.05
-0.25,0.18,4.052777778
-0.23,0.18,4.055555556
-0.22,0.18,4.058333333
-0.21,0.17,4.061111111
-0.2,0.15,4.063888889
-0.2,0.14,4.066666667
-0.19,0.15,4.069444444
-0.19,0.15,4.072222222
-0.17,0.15,4.075
-0.17,0.15,4.077777778
-0.18,0.13,4.080555556
-0.19,0.13,4.083333333
-0.2,0.13,4.086111111
-0.19,0.13,4.088888889
-0.17,0.14,4.091666667
-0.17,0.14,4.094444444
-0.18,0.12,4.097222222
-0.19,0.12,4.1
-0.2,0.12,4.102777778
-0.18,0.13,4.105555556
-0.17,0.15,4.108333333
-0.16,0.13,4.111111111
-0.16,0.13,4.113888889
-0.18,0.12,4.116666667
-0.19,0.13,4.119444444
-0.19,0.15,4.122222222
-0.18,0.16,4.125
-0.18,0.16,4.127777778
-0.19,0.15,4.130555556
-0.19,0.16,4.133333333
-0.2,0.15,4.136111111
-0.2,0.17,4.138888889
-0.19,0.19,4.141666667
-0.19,0.18,4.144444444
-0.18,0.17,4.147222222
-0.2,0.16,4.15
-0.2,0.17,4.152777778
-0.21,0.17,4.155555556
-0.2,0.18,4.158333333
-0.21,0.18,4.161111111
-0.22,0.17,4.163888889
-0.23,0.17,4.166666667
-0.24,0.18,4.169444444
-0.23,0.19,4.172222222
-0.22,0.2,4.175
-0.23,0.19,4.177777778
-0.25,0.19,4.180555556
-0.25,0.2,4.183333333
-0.25,0.2,4.186111111
-0.26,0.22,4.188888889
-0.26,0.22,4.191666667
-0.28,0.22,4.194444444
-0.28,0.22,4.197222222
-0.3,0.21,4.2
-0.31,0.21,4.202777778
-0.31,0.22,4.205555556
-0.31,0.23,4.208333333
-0.31,0.22,4.211111111
-0.32,0.2,4.213888889
-0.33,0.2,4.216666667
-0.34,0.2,4.219444444
-0.34,0.22,4.222222222
-0.36,0.22,4.225
-0.34,0.22,4.227777778
-0.34,0.21,4.230555556
-0.35,0.2,4.233333333
-0.36,0.2,4.236111111
-0.35,0.22,4.238888889
-0.34,0.22,4.241666667
-0.34,0.22,4.244444444
-0.36,0.2,4.247222222
-0.37,0.2,4.25
-0.37,0.2,4.252777778
-0.35,0.21,4.255555556
-0.34,0.2,4.258333333
-0.34,0.2,4.261111111
-0.35,0.19,4.263888889
-0.36,0.16,4.266666667
-0.35,0.15,4.269444444
-0.36,0.17,4.272222222
-0.33,0.18,4.275
-0.34,0.17,4.277777778
-0.33,0.17,4.280555556
-0.33,0.15,4.283333333
-0.33,0.15,4.286111111
-0.34,0.17,4.288888889
-0.33,0.17,4.291666667
-0.32,0.17,4.294444444
-0.31,0.17,4.297222222
-0.31,0.15,4.3
-0.32,0.15,4.302777778
-0.31,0.17,4.305555556
-0.3,0.18,4.308333333
-0.29,0.17,4.311111111
-0.28,0.15,4.313888889
-0.29,0.15,4.316666667
-0.3,0.15,4.319444444
-0.28,0.15,4.322222222
-0.28,0.15,4.325
-0.25,0.15,4.327777778
-0.26,0.14,4.330555556
-0.26,0.15,4.333333333
-0.27,0.14,4.336111111
-0.25,0.15,4.338888889
-0.25,0.15,4.341666667
-0.23,0.15,4.344444444
-0.25,0.14,4.347222222
-0.25,0.14,4.35
-0.28,0.13,4.352777778
-0.26,0.13,4.355555556
-0.25,0.16,4.358333333
-0.24,0.15,4.361111111
-0.25,0.15,4.363888889
-0.25,0.13,4.366666667
-0.26,0.15,4.369444444
-0.26,0.14,4.372222222
-0.25,0.15,4.375
-0.23,0.14,4.377777778
-0.25,0.13,4.380555556
-0.25,0.13,4.383333333
-0.25,0.12,4.386111111
-0.24,0.15,4.388888889
-0.24,0.15,4.391666667
-0.23,0.14,4.394444444
-0.24,0.14,4.397222222
-0.25,0.13,4.4
-0.25,0.12,4.402777778
-0.25,0.13,4.405555556
-0.22,0.15,4.408333333
-0.22,0.14,4.411111111
-0.23,0.15,4.413888889
-0.23,0.13,4.416666667
-0.26,0.13,4.419444444
-0.23,0.15,4.422222222
-0.23,0.14,4.425
-0.22,0.15,4.427777778
-0.22,0.13,4.430555556
-0.24,0.13,4.433333333
-0.23,0.12,4.436111111
-0.22,0.13,4.438888889
-0.22,0.13,4.441666667
-0.22,0.14,4.444444444
-0.22,0.13,4.447222222
-0.24,0.13,4.45
-0.25,0.13,4.452777778
-0.24,0.13,4.455555556
-0.23,0.14,4.458333333
-0.22,0.13,4.461111111
-0.22,0.15,4.463888889
-0.23,0.13,4.466666667
-0.24,0.12,4.469444444
-0.22,0.14,4.472222222
-0.22,0.15,4.475
-0.22,0.14,4.477777778
-0.22,0.14,4.480555556
-0.23,0.13,4.483333333
-0.23,0.12,4.486111111
-0.22,0.15,4.488888889
-0.2,0.15,4.491666667
-0.19,0.13,4.494444444
-0.19,0.12,4.497222222
-0.19,0.12,4.5
-0.19,0.13,4.502777778
-0.17,0.14,4.505555556
-0.16,0.15,4.508333333
-0.16,0.15,4.511111111
-0.16,0.16,4.513888889
-0.17,0.15,4.516666667
-0.16,0.15,4.519444444
-0.13,0.17,4.522222222
-0.13,0.19,4.525
-0.1,0.18,4.527777778
-0.1,0.17,4.530555556
-0.08,0.17,4.533333333
-0.06,0.17,4.536111111
-0.04,0.2,4.538888889
-0.03,0.2,4.541666667
-0.01,0.17,4.544444444
0.0,0.17,4.547222222
0.0,0.15,4.55
0.01,0.15,4.552777778
0.02,0.15,4.555555556
0.02,0.15,4.558333333
0.04,0.15,4.561111111
0.04,0.13,4.563888889
0.05,0.13,4.566666667
0.05,0.14,4.569444444
0.05,0.15,4.572222222
0.04,0.16,4.575
0.02,0.15,4.577777778
-0.01,0.12,4.580555556
-0.05,0.12,4.583333333
-0.1,0.11,4.586111111
-0.13,0.12,4.588888889
-0.16,0.13,4.591666667
-0.18,0.12,4.594444444
-0.2,0.12,4.597222222
-0.24,0.11,4.6
-0.27,0.1,4.602777778
-0.26,0.1,4.605555556
-0.25,0.12,4.608333333
-0.25,0.12,4.611111111
-0.25,0.1,4.613888889
-0.24,0.08,4.616666667
-0.25,0.07,4.619444444
-0.25,0.1,4.622222222
-0.25,0.1,4.625
-0.25,0.07,4.627777778
-0.25,0.09,4.630555556
-0.25,0.08,4.633333333
-0.27,0.08,4.636111111
-0.26,0.09,4.638888889
-0.26,0.1,4.641666667
-0.25,0.09,4.644444444
-0.25,0.1,4.647222222
-0.24,0.08,4.65
-0.26,0.07,4.652777778
-0.25,0.09,4.655555556
-0.25,0.1,4.658333333
-0.25,0.1,4.661111111
-0.24,0.1,4.663888889
-0.25,0.09,4.666666667
-0.26,0.07,4.669444444
-0.25,0.09,4.672222222
-0.25,0.08,4.675
-0.24,0.09,4.677777778
-0.23,0.06,4.680555556
-0.24,0.07,4.683333333
-0.25,0.07,4.686111111
-0.25,0.07,4.688888889
-0.23,0.08,4.691666667
-0.23,0.09,4.694444444
-0.24,0.09,4.697222222
-0.25,0.08,4.7
-0.26,0.07,4.702777778
-0.25,0.05,4.705555556
-0.24,0.01,4.708333333
-0.22,-0.07,4.711111111
-0.18,-0.17,4.713888889
-0.11,-0.27,4.716666667
-0.04,-0.41,4.719444444
0.06,-0.54,4.722222222
0.16,-0.7,4.725
0.25,-0.91,4.727777778
0.3,-1.07,4.730555556
0.26,-1.19,4.733333333
0.23,-1.21,4.736111111
0.25,-1.18,4.738888889
0.31,-1.16,4.741666667
0.34,-1.13,4.744444444
0.38,-1.13,4.747222222
0.4,-1.09,4.75
0.4,-1.09,4.752777778
0.42,-1.03,4.755555556
0.43,-1.01,4.758333333
0.45,-0.99,4.761111111
0.46,-0.99,4.763888889
0.43,-0.96,4.766666667
0.39,-0.92,4.769444444
0.28,-0.89,4.772222222
0.13,-0.82,4.775
-0.03,-0.77,4.777777778
-0.17,-0.73,4.780555556
-0.31,-0.69,4.783333333
-0.48,-0.64,4.786111111
-0.61,-0.57,4.788888889
-0.72,-0.47,4.791666667
-0.78,-0.42,4.794444444
-0.83,-0.34,4.797222222
-0.82,-0.27,4.8
-0.77,-0.2,4.802777778
-0.67,-0.12,4.805555556
-0.61,-0.03,4.808333333
-0.58,0.0,4.811111111
-0.56,0.07,4.813888889
-0.52,0.12,4.816666667
-0.46,0.17,4.819444444
-0.4,0.22,4.822222222
-0.38,0.26,4.825
-0.36,0.28,4.827777778
-0.36,0.29,4.830555556
-0.36,0.29,4.833333333
-0.35,0.31,4.836111111
-0.36,0.32,4.838888889
-0.36,0.35,4.841666667
-0.35,0.34,4.844444444
-0.37,0.35,4.847222222
-0.37,0.35,4.85
-0.37,0.35,4.852777778
-0.37,0.36,4.855555556
-0.36,0.37,4.858333333
-0.36,0.38,4.861111111
-0.37,0.38,4.863888889
-0.37,0.37,4.866666667
-0.39,0.39,4.869444444
-0.37,0.39,4.872222222
-0.39,0.4,4.875
-0.37,0.4,4.877777778
-0.37,0.4,4.880555556
-0.37,0.41,4.883333333
-0.4,0.4,4.886111111
-0.38,0.42,4.888888889
-0.38,0.44,4.891666667
-0.39,0.44,4.894444444
-0.39,0.42,4.897222222
-0.39,0.42,4.9
-0.4,0.43,4.902777778
-0.4,0.43,4.905555556
-0.38,0.44,4.908333333
-0.37,0.44,4.911111111
-0.38,0.42,4.913888889
-0.4,0.43,4.916666667
-0.4,0.42,4.919444444
-0.4,0.44,4.922222222
-0.38,0.45,4.925
-0.39,0.45,4.927777778
-0.39,0.44,4.930555556
-0.39,0.44,4.933333333
-0.4,0.44,4.936111111
-0.38,0.45,4.938888889
-0.39,0.47,4.941666667
-0.38,0.45,4.944444444
-0.37,0.46,4.947222222
-0.38,0.44,4.95
-0.4,0.45,4.952777778
-0.38,0.45,4.955555556
-0.39,0.47,4.958333333
-0.37,0.47,4.961111111
-0.37,0.45,4.963888889
-0.37,0.44,4.966666667
-0.39,0.44,4.969444444
-0.37,0.44,4.972222222
-0.35,0.46,4.975
-0.35,0.45,4.977777778
-0.36,0.44,4.980555556
-0.34,0.43,4.983333333
-0.34,0.42,4.986111111
-0.34,0.44,4.988888889
-0.34,0.45,4.991666667
-0.33,0.43,4.994444444
-0.32,0.42,4.997222222
-0.32,0.41,5.0
-0.32,0.42,5.002777778
-0.31,0.42,5.005555556
-0.31,0.42,5.008333333
-0.28,0.4,5.011111111
-0.28,0.38,5.013888889
-0.29,0.35,5.016666667
-0.3,0.35,5.019444444
-0.29,0.35,5.022222222
-0.27,0.35,5.025
-0.26,0.34,5.027777778
-0.25,0.32,5.030555556
-0.25,0.32,5.033333333
-0.25,0.3,5.036111111
-0.25,0.28,5.038888889
-0.22,0.29,5.041666667
-0.22,0.26,5.044444444
-0.22,0.25,5.047222222
-0.2,0.23,5.05
-0.22,0.22,5.052777778
-0.2,0.23,5.055555556
-0.2,0.22,5.058333333
-0.18,0.21,5.061111111
-0.17,0.2,5.063888889
-0.19,0.17,5.066666667
-0.19,0.16,5.069444444
-0.19,0.15,5.072222222
-0.17,0.17,5.075
-0.17,0.15,5.077777778
-0.19,0.13,5.080555556
-0.19,0.12,5.083333333
-0.2,0.11,5.086111111
-0.19,0.12,5.088888889
-0.19,0.13,5.091666667
-0.18,0.13,5.094444444
-0.19,0.12,5.097222222
-0.19,0.1,5.1
-0.19,0.11,5.102777778
-0.18,0.12,5.105555556
-0.17,0.14,5.108333333
-0.18,0.14,5.111111111
-0.19,0.12,5.113888889
-0.2,0.11,5.116666667
-0.2,0.12,5.119444444
-0.2,0.13,5.122222222
-0.19,0.13,5.125
-0.19,0.12,5.127777778
-0.19,0.12,5.130555556
-0.19,0.12,5.133333333
-0.2,0.12,5.136111111
-0.19,0.12,5.138888889
-0.19,0.13,5.141666667
-0.2,0.14,5.144444444
-0.21,0.13,5.147222222
-0.22,0.13,5.15
-0.22,0.13,5.152777778
-0.22,0.14,5.155555556
-0.21,0.15,5.158333333
-0.21,0.15,5.161111111
-0.22,0.15,5.163888889
-0.22,0.15,5.166666667
-0.24,0.15,5.169444444
-0.22,0.17,5.172222222
-0.22,0.18,5.175
-0.22,0.17,5.177777778
-0.22,0.16,5.180555556
-0.25,0.15,5.183333333
-0.25,0.15,5.186111111
-0.25,0.17,5.188888889
-0.26,0.17,5.191666667
-0.25,0.17,5.194444444
-0.26,0.15,5.197222222
-0.27,0.16,5.2
-0.28,0.16,5.202777778
-0.28,0.17,5.205555556
-0.26,0.18,5.208333333
-0.26,0.18,5.211111111
-0.29,0.17,5.213888889
-0.31,0.17,5.216666667
-0.32,0.17,5.219444444
-0.3,0.18,5.222222222
-0.3,0.2,5.225
-0.29,0.19,5.227777778
-0.3,0.18,5.230555556
-0.32,0.16,5.233333333
-0.33,0.17,5.236111111
-0.31,0.17,5.238888889
-0.31,0.17,5.241666667
-0.32,0.17,5.244444444
-0.33,0.15,5.247222222
-0.32,0.15,5.25
-0.34,0.15,5.252777778
-0.34,0.17,5.255555556
-0.34,0.15,5.258333333
-0.31,0.16,5.261111111
-0.33,0.15,5.263888889
-0.33,0.13,5.266666667
-0.33,0.15,5.269444444
-0.33,0.15,5.272222222
-0.33,0.16,5.275
-0.32,0.15,5.277777778
-0.32,0.14,5.280555556
-0.33,0.14,5.283333333
-0.34,0.14,5.286111111
-0.33,0.15,5.288888889
-0.31,0.16,5.291666667
-0.31,0.15,5.294444444
-0.31,0.12,5.297222222
-0.31,0.1,5.3
-0.32,0.12,5.302777778
-0.31,0.13,5.305555556
-0.33,0.14,5.308333333
-0.31,0.13,5.311111111
-0.31,0.12,5.313888889
-0.31,0.1,5.316666667
-0.31,0.11,5.319444444
-0.31,0.12,5.322222222
-0.31,0.13,5.325
-0.3,0.12,5.327777778
-0.3,0.12,5.330555556
-0.31,0.12,5.333333333
-0.3,0.12,5.336111111
-0.31,0.13,5.338888889
-0.3,0.13,5.341666667
-0.31,0.13,5.344444444
-0.29,0.12,5.347222222
-0.31,0.11,5.35
-0.31,0.12,5.352777778
-0.31,0.14,5.355555556
-0.3,0.13,5.358333333
-0.3,0.12,5.361111111
-0.28,0.11,5.363888889
-0.31,0.1,5.366666667
-0.31,0.08,5.369444444
-0.31,0.12,5.372222222
-0.28,0.12,5.375
-0.28,0.12,5.377777778
-0.28,0.11,5.380555556
-0.27,0.11,5.383333333
-0.29,0.11,5.386111111
-0.29,0.12,5.388888889
-0.28,0.13,5.391666667
-0.28,0.13,5.394444444
-0.28,0.12,5.397222222
-0.27,0.12,5.4
-0.28,0.12,5.402777778
-0.28,0.12,5.405555556
-0.28,0.13,5.408333333
-0.27,0.12,5.411111111
-0.27,0.12,5.413888889
-0.28,0.1,5.416666667
-0.28,0.1,5.419444444
-0.28,0.11,5.422222222
-0.28,0.12,5.425
-0.29,0.12,5.427777778
-0.28,0.12,5.430555556
-0.28,0.1,5.433333333
-0.28,0.1,5.436111111
-0.28,0.11,5.438888889
-0.27,0.11,5.441666667
-0.25,0.12,5.444444444
-0.24,0.1,5.447222222
-0.22,0.1,5.45
-0.25,0.12,5.452777778
-0.25,0.13,5.455555556
-0.27,0.14,5.458333333
-0.25,0.14,5.461111111
-0.22,0.15,5.463888889
-0.21,0.15,5.466666667
-0.18,0.15,5.469444444
-0.16,0.17,5.472222222
-0.17,0.18,5.475
-0.18,0.17,5.477777778
-0.19,0.17,5.480555556
-0.17,0.15,5.483333333
-0.16,0.15,5.486111111
-0.13,0.17,5.488888889
-0.08,0.17,5.491666667
-0.07,0.16,5.494444444
-0.07,0.15,5.497222222
-0.05,0.15,5.5
-0.05,0.14,5.502777778
-0.05,0.14,5.505555556
-0.05,0.15,5.508333333
-0.04,0.15,5.511111111
-0.04,0.12,5.513888889
-0.05,0.11,5.516666667
-0.07,0.12,5.519444444
-0.07,0.12,5.522222222
-0.1,0.13,5.525
-0.12,0.12,5.527777778
-0.16,0.12,5.530555556
-0.19,0.1,5.533333333
-0.22,0.1,5.536111111
-0.25,0.11,5.538888889
-0.28,0.11,5.541666667
-0.33,0.08,5.544444444
-0.34,0.07,5.547222222
-0.35,0.06,5.55
-0.34,0.06,5.552777778
-0.32,0.07,5.555555556
-0.32,0.08,5.558333333
-0.33,0.07,5.561111111
-0.34,0.07,5.563888889
-0.34,0.07,5.566666667
-0.34,0.07,5.569444444
-0.33,0.07,5.572222222
-0.33,0.09,5.575
-0.32,0.08,5.577777778
-0.33,0.08,5.580555556
-0.34,0.07,5.583333333
-0.34,0.1,5.586111111
-0.33,0.09,5.588888889
-0.31,0.09,5.591666667
-0.31,0.08,5.594444444
-0.33,0.07,5.597222222
-0.36,0.05,5.6
-0.37,0.07,5.602777778
-0.34,0.08,5.605555556
-0.33,0.08,5.608333333
-0.3,0.08,5.611111111
-0.31,0.07,5.613888889
-0.31,0.07,5.616666667
-0.32,0.07,5.619444444
-0.31,0.07,5.622222222
-0.31,0.08,5.625
-0.32,0.08,5.627777778
-0.31,0.08,5.630555556
-0.31,0.05,5.633333333
-0.31,0.07,5.636111111
-0.28,0.08,5.638888889
-0.28,0.09,5.641666667
-0.3,0.08,5.644444444
-0.31,0.08,5.647222222
-0.31,0.07,5.65
-0.31,0.03,5.652777778
-0.31,-0.03,5.655555556
-0.26,-0.11,5.658333333
-0.19,-0.22,5.661111111
-0.11,-0.32,5.663888889
-0.01,-0.47,5.666666667
0.1,-0.64,5.669444444
0.19,-0.85,5.672222222
0.25,-1.04,5.675
0.25,-1.16,5.677777778
0.2,-1.19,5.680555556
0.22,-1.19,5.683333333
0.26,-1.14,5.686111111
0.31,-1.11,5.688888889
0.36,-1.06,5.691666667
0.39,-1.04,5.694444444
0.37,-1.0,5.697222222
0.37,-0.98,5.7
0.37,-0.97,5.702777778
0.4,-0.94,5.705555556
0.42,-0.9,5.708333333
0.36,-0.86,5.711111111
0.22,-0.84,5.713888889
0.04,-0.81,5.716666667
-0.12,-0.76,5.719444444
-0.25,-0.71,5.722222222
-0.42,-0.66,5.725
-0.6,-0.59,5.727777778
-0.74,-0.52,5.730555556
-0.83,-0.45,5.733333333
-0.87,-0.37,5.736111111
-0.87,-0.28,5.738888889
-0.81,-0.22,5.741666667
-0.75,-0.13,5.744444444
-0.69,-0.07,5.747222222
-0.65,-0.0,5.75
-0.63,0.05,5.752777778
-0.58,0.12,5.755555556
-0.54,0.16,5.758333333
-0.51,0.2,5.761111111
-0.47,0.22,5.763888889
-0.45,0.22,5.766666667
-0.43,0.23,5.769444444
-0.4,0.25,5.772222222
-0.4,0.27,5.775
-0.42,0.27,5.777777778
-0.44,0.28,5.780555556
-0.46,0.27,5.783333333
-0.46,0.29,5.786111111
-0.46,0.3,5.788888889
-0.46,0.32,5.791666667
-0.46,0.32,5.794444444
-0.47,0.32,5.797222222
-0.49,0.32,5.8
-0.47,0.32,5.802777778
-0.44,0.33,5.805555556
-0.42,0.35,5.808333333
-0.43,0.35,5.811111111
-0.46,0.34,5.813888889
-0.48,0.35,5.816666667
-0.52,0.36,5.819444444
-0.54,0.35,5.822222222
-0.54,0.37,5.825
-0.52,0.39,5.827777778
-0.5,0.37,5.830555556
-0.48,0.36,5.833333333
-0.48,0.37,5.836111111
-0.48,0.37,5.838888889
-0.49,0.38,5.841666667
-0.52,0.37,5.844444444
-0.52,0.37,5.847222222
-0.52,0.37,5.85
-0.52,0.39,5.852777778
-0.5,0.38,5.855555556
-0.49,0.39,5.858333333
-0.49,0.42,5.861111111
-0.48,0.4,5.863888889
-0.49,0.4,5.866666667
-0.48,0.4,5.869444444
-0.49,0.42,5.872222222
-0.49,0.43,5.875
-0.48,0.42,5.877777778
-0.48,0.4,5.880555556
-0.49,0.39,5.883333333
-0.49,0.39,5.886111111
-0.48,0.4,5.888888889
-0.48,0.4,5.891666667
-0.51,0.4,5.894444444
-0.54,0.4,5.897222222
-0.58,0.38,5.9
-0.57,0.39,5.902777778
-0.52,0.4,5.905555556
-0.47,0.42,5.908333333
-0.49,0.4,5.911111111
-0.52,0.41,5.913888889
-0.53,0.4,5.916666667
-0.52,0.39,5.919444444
-0.5,0.42,5.922222222
-0.47,0.41,5.925
-0.47,0.42,5.927777778
-0.48,0.4,5.930555556
-0.5,0.39,5.933333333
-0.49,0.38,5.936111111
-0.49,0.39,5.938888889
-0.46,0.39,5.941666667
-0.46,0.39,5.944444444
-0.46,0.37,5.947222222
-0.46,0.36,5.95
-0.46,0.37,5.952777778
-0.45,0.35,5.955555556
-0.43,0.35,5.958333333
-0.42,0.34,5.961111111
-0.43,0.32,5.963888889
-0.46,0.3,5.966666667
-0.45,0.32,5.969444444
-0.43,0.3,5.972222222
-0.39,0.3,5.975
-0.4,0.3,5.977777778
-0.39,0.29,5.980555556
-0.39,0.25,5.983333333
-0.4,0.25,5.986111111
-0.37,0.25,5.988888889
-0.35,0.24,5.991666667
-0.33,0.23,5.994444444
-0.33,0.2,5.997222222
-0.34,0.18,6.0
-0.34,0.18,6.002777778
-0.33,0.18,6.005555556
-0.3,0.17,6.008333333
-0.28,0.15,6.011111111
-0.29,0.14,6.013888889
-0.31,0.13,6.016666667
-0.31,0.12,6.019444444
-0.3,0.12,6.022222222
-0.3,0.12,6.025
-0.28,0.11,6.027777778
-0.28,0.11,6.030555556
-0.28,0.1,6.033333333
-0.28,0.1,6.036111111
-0.28,0.08,6.038888889
-0.26,0.1,6.041666667
-0.26,0.1,6.044444444
-0.26,0.09,6.047222222
-0.28,0.07,6.05
-0.29,0.07,6.052777778
-0.3,0.08,6.055555556
-0.26,0.08,6.058333333
-0.28,0.08,6.061111111
-0.28,0.08,6.063888889
-0.29,0.07,6.066666667
-0.3,0.07,6.069444444
-0.29,0.07,6.072222222
-0.28,0.08,6.075
-0.28,0.08,6.077777778
-0.26,0.07,6.080555556
-0.28,0.07,6.083333333
-0.29,0.07,6.086111111
-0.29,0.09,6.088888889
-0.27,0.1,6.091666667
-0.28,0.08,6.094444444
-0.3,0.08,6.097222222
-0.3,0.07,6.1
-0.28,0.08,6.102777778
-0.28,0.1,6.105555556
-0.28,0.1,6.108333333
-0.31,0.11,6.111111111
-0.31,0.08,6.113888889
-0.31,0.08,6.116666667
-0.33,0.09,6.119444444
-0.31,0.1,6.122222222
-0.3,0.1,6.125
-0.3,0.11,6.127777778
-0.32,0.1,6.130555556
-0.34,0.08,6.133333333
-0.34,0.09,6.136111111
-0.33,0.11,6.138888889
-0.31,0.12,6.141666667
-0.3,0.11,6.144444444
-0.32,0.11,6.147222222
-0.36,0.1,6.15
-0.37,0.12,6.152777778
-0.37,0.12,6.155555556
-0.36,0.13,6.158333333
-0.35,0.12,6.161111111
-0.34,0.13,6.163888889
-0.35,0.12,6.166666667
-0.37,0.12,6.169444444
-0.36,0.14,6.172222222
-0.37,0.15,6.175
-0.36,0.15,6.177777778
-0.37,0.12,6.180555556
-0.38,0.12,6.183333333
-0.39,0.12,6.186111111
-0.39,0.12,6.188888889
-0.37,0.13,6.191666667
-0.38,0.13,6.194444444
-0.39,0.12,6.197222222
-0.4,0.11,6.2
-0.39,0.12,6.202777778
-0.4,0.12,6.205555556
-0.39,0.14,6.208333333
-0.37,0.12,6.211111111
-0.37,0.11,6.213888889
-0.39,0.1,6.216666667
-0.4,0.12,6.219444444
-0.4,0.13,6.222222222
-0.39,0.13,6.225
-0.38,0.12,6.227777778
-0.37,0.11,6.230555556
-0.4,0.1,6.233333333
-0.41,0.1,6.236111111
-0.39,0.1,6.238888889
-0.38,0.12,6.241666667
-0.37,0.1,6.244444444
-0.37,0.09,6.247222222
-0.37,0.07,6.25
-0.39,0.07,6.252777778
-0.39,0.09,6.255555556
-0.37,0.08,6.258333333
-0.37,0.08,6.261111111
-0.39,0.07,6.263888889
-0.39,0.05,6.266666667
-0.39,0.05,6.269444444
-0.37,0.08,6.272222222
-0.36,0.07,6.275
-0.34,0.08,6.277777778
-0.35,0.07,6.280555556
-0.36,0.06,6.283333333
-0.37,0.06,6.286111111
-0.37,0.07,6.288888889
-0.34,0.07,6.291666667
-0.34,0.07,6.294444444
-0.36,0.05,6.297222222
-0.36,0.02,6.3
-0.36,0.05,6.302777778
-0.34,0.05,6.305555556
-0.33,0.05,6.308333333
-0.34,0.03,6.311111111
-0.34,0.03,6.313888889
-0.34,0.02,6.316666667
-0.34,0.02,6.319444444
-0.33,0.03,6.322222222
-0.32,0.03,6.325
-0.33,0.03,6.327777778
-0.33,0.02,6.330555556
-0.34,0.02,6.333333333
-0.34,0.02,6.336111111
-0.31,0.04,6.338888889
-0.31,0.05,6.341666667
-0.31,0.04,6.344444444
-0.32,0.04,6.347222222
-0.31,0.02,6.35
-0.32,0.02,6.352777778
-0.32,0.02,6.355555556
-0.31,0.04,6.358333333
-0.31,0.02,6.361111111
-0.33,0.02,6.363888889
-0.33,0.02,6.366666667
-0.32,0.01,6.369444444
-0.31,0.02,6.372222222
-0.29,0.03,6.375
-0.3,0.02,6.377777778
-0.31,0.02,6.380555556
-0.33,0.01,6.383333333
-0.33,0.02,6.386111111
-0.31,0.03,6.388888889
-0.3,0.03,6.391666667
-0.3,0.03,6.394444444
-0.3,0.02,6.397222222
-0.31,0.02,6.4
-0.31,0.01,6.402777778
-0.31,0.02,6.405555556
-0.3,0.03,6.408333333
-0.3,0.02,6.411111111
-0.31,0.01,6.413888889
-0.31,0.0,6.416666667
-0.3,0.0,6.419444444
-0.28,0.02,6.422222222
-0.28,0.02,6.425
-0.29,0.02,6.427777778
-0.31,0.01,6.430555556
-0.32,0.01,6.433333333
-0.31,0.0,6.436111111
-0.31,0.0,6.438888889
-0.28,0.02,6.441666667
-0.28,0.02,6.444444444
-0.28,0.02,6.447222222
-0.3,-0.0,6.45
-0.3,0.0,6.452777778
-0.28,0.02,6.455555556
-0.28,0.02,6.458333333
-0.27,0.03,6.461111111
-0.27,0.02,6.463888889
-0.27,-0.01,6.466666667
-0.28,0.0,6.469444444
-0.28,0.0,6.472222222
-0.26,0.01,6.475
-0.28,0.01,6.477777778
-0.28,0.0,6.480555556
-0.3,-0.0,6.483333333
-0.3,0.0,6.486111111
-0.28,0.01,6.488888889
-0.27,0.02,6.491666667
-0.26,0.02,6.494444444
-0.28,0.02,6.497222222
-0.27,0.01,6.5
-0.28,0.02,6.502777778
-0.28,0.03,6.505555556
-0.28,0.05,6.508333333
-0.24,0.05,6.511111111
-0.22,0.03,6.513888889
-0.23,0.03,6.516666667
-0.23,0.05,6.519444444
-0.22,0.05,6.522222222
-0.2,0.07,6.525
-0.2,0.07,6.527777778
-0.19,0.05,6.530555556
-0.16,0.06,6.533333333
-0.16,0.07,6.536111111
-0.11,0.06,6.538888889
-0.08,0.06,6.541666667
-0.07,0.06,6.544444444
-0.08,0.03,6.547222222
-0.08,0.02,6.55
-0.09,0.04,6.552777778
-0.07,0.05,6.555555556
-0.05,0.05,6.558333333
-0.02,0.05,6.561111111
-0.02,0.05,6.563888889
-0.01,0.05,6.566666667
-0.04,0.05,6.569444444
-0.04,0.05,6.572222222
-0.06,0.05,6.575
-0.13,0.03,6.577777778
-0.16,0.02,6.580555556
-0.2,0.0,6.583333333
-0.23,0.0,6.586111111
-0.27,0.02,6.588888889
-0.29,0.02,6.591666667
-0.31,0.0,6.594444444
-0.31,-0.02,6.597222222
-0.3,-0.02,6.6
-0.28,-0.0,6.602777778
-0.3,0.0,6.605555556
-0.31,-0.0,6.608333333
-0.33,0.0,6.611111111
-0.32,-0.02,6.613888889
-0.33,-0.03,6.616666667
-0.33,-0.02,6.619444444
-0.31,-0.02,6.622222222
-0.31,-0.02,6.625
-0.31,-0.02,6.627777778
-0.31,-0.03,6.630555556
-0.31,-0.04,6.633333333
-0.31,-0.05,6.636111111
-0.32,-0.02,6.638888889
-0.3,-0.03,6.641666667
-0.3,-0.03,6.644444444
-0.3,-0.03,6.647222222
-0.31,-0.05,6.65
-0.31,-0.04,6.652777778
-0.31,-0.03,6.655555556
-0.31,-0.03,6.658333333
-0.32,-0.02,6.661111111
-0.33,-0.03,6.663888889
-0.34,-0.04,6.666666667
-0.33,-0.04,6.669444444
-0.28,-0.02,6.672222222
-0.28,-0.02,6.675
-0.29,-0.02,6.677777778
-0.3,-0.04,6.680555556
-0.31,-0.05,6.683333333
-0.33,-0.03,6.686111111
-0.31,-0.02,6.688888889
-0.31,-0.02,6.691666667
-0.31,-0.03,6.694444444
-0.32,-0.1,6.697222222
-0.31,-0.2,6.7
-0.26,-0.3,6.702777778
-0.19,-0.42,6.705555556
-0.1,-0.55,6.708333333
0.0,-0.72,6.711111111
0.08,-0.95,6.713888889
0.17,-1.17,6.716666667
0.17,-1.34,6.719444444
0.16,-1.37,6.722222222
0.19,-1.34,6.725
0.23,-1.33,6.727777778
0.26,-1.31,6.730555556
0.27,-1.31,6.733333333
0.3,-1.27,6.736111111
0.31,-1.24,6.738888889
0.33,-1.21,6.741666667
0.35,-1.18,6.744444444
0.35,-1.17,6.747222222
0.35,-1.17,6.75
0.3,-1.13,6.752777778
0.22,-1.09,6.755555556
0.07,-1.02,6.758333333
-0.08,-0.98,6.761111111
-0.21,-0.93,6.763888889
-0.34,-0.89,6.766666667
-0.49,-0.82,6.769444444
-0.62,-0.72,6.772222222
-0.72,-0.63,6.775
-0.79,-0.54,6.777777778
-0.81,-0.45,6.780555556
-0.77,-0.37,6.783333333
-0.71,-0.29,6.786111111
-0.64,-0.22,6.788888889
-0.6,-0.14,6.791666667
-0.58,-0.07,6.794444444
-0.54,-0.03,6.797222222
-0.52,0.02,6.8
-0.46,0.07,6.802777778
-0.42,0.12,6.805555556
-0.4,0.16,6.808333333
-0.39,0.17,6.811111111
-0.4,0.17,6.813888889
-0.4,0.17,6.816666667
-0.4,0.19,6.819444444
-0.4,0.22,6.822222222
-0.4,0.24,6.825
-0.39,0.24,6.827777778
-0.38,0.24,6.830555556
-0.39,0.24,6.833333333
-0.4,0.25,6.836111111
-0.39,0.27,6.838888889
-0.37,0.29,6.841666667
-0.39,0.3,6.844444444
-0.4,0.3,6.847222222
-0.4,0.27,6.85
-0.4,0.28,6.852777778
-0.4,0.3,6.855555556
-0.39,0.3,6.858333333
-0.39,0.3,6.861111111
-0.4,0.29,6.863888889
-0.4,0.29,6.866666667
-0.4,0.3,6.869444444
-0.39,0.3,6.872222222
-0.37,0.33,6.875
-0.4,0.33,6.877777778
-0.41,0.32,6.880555556
-0.43,0.31,6.883333333
-0.42,0.34,6.886111111
-0.4,0.34,6.888888889
-0.4,0.34,6.891666667
-0.39,0.37,6.894444444
-0.39,0.35,6.897222222
-0.4,0.35,6.9
-0.4,0.35,6.902777778
-0.39,0.35,6.905555556
-0.4,0.36,6.908333333
-0.39,0.35,6.911111111
-0.4,0.35,6.913888889
-0.4,0.33,6.916666667
-0.41,0.35,6.919444444
-0.4,0.37,6.922222222
-0.38,0.36,6.925
-0.38,0.37,6.927777778
-0.4,0.35,6.930555556
-0.4,0.34,6.933333333
-0.41,0.34,6.936111111
-0.39,0.34,6.938888889
-0.39,0.37,6.941666667
-0.37,0.37,6.944444444
-0.38,0.36,6.947222222
-0.37,0.35,6.95
-0.38,0.35,6.952777778
-0.37,0.37,6.955555556
-0.36,0.37,6.958333333
-0.37,0.35,6.961111111
-0.36,0.33,6.963888889
-0.36,0.34,6.966666667
-0.36,0.32,6.969444444
-0.35,0.32,6.972222222
-0.34,0.34,6.975
-0.35,0.32,6.977777778
-0.33,0.32,6.980555556
-0.33,0.3,6.983333333
-0.34,0.3,6.986111111
-0.31,0.3,6.988888889
-0.3,0.31,6.991666667
-0.31,0.29,6.994444444
-0.31,0.27,6.997222222
-0.31,0.27,7.0
-0.3,0.26,7.002777778
-0.29,0.26,7.005555556
-0.28,0.26,7.008333333
-0.28,0.26,7.011111111
-0.27,0.25,7.013888889
-0.26,0.23,7.016666667
-0.26,0.22,7.019444444
-0.25,0.21,7.022222222
-0.24,0.2,7.025
-0.23,0.19,7.027777778
-0.23,0.17,7.030555556
-0.23,0.14,7.033333333
-0.22,0.12,7.036111111
-0.21,0.12,7.038888889
-0.2,0.11,7.041666667
-0.19,0.1,7.044444444
-0.2,0.08,7.047222222
-0.2,0.07,7.05
-0.2,0.07,7.052777778
-0.2,0.07,7.055555556
-0.18,0.07,7.058333333
-0.17,0.07,7.061111111
-0.17,0.05,7.063888889
-0.19,0.02,7.066666667
-0.2,0.04,7.069444444
-0.17,0.05,7.072222222
-0.17,0.05,7.075
-0.16,0.03,7.077777778
-0.16,0.01,7.080555556
-0.18,-0.02,7.083333333
-0.2,-0.0,7.086111111
-0.19,0.01,7.088888889
-0.19,0.01,7.091666667
-0.2,0.01,7.094444444
-0.21,-0.0,7.097222222
-0.21,-0.01,7.1
-0.22,-0.01,7.102777778
-0.21,-0.0,7.105555556
-0.2,-0.0,7.108333333
-0.21,-0.02,7.111111111
-0.2,-0.02,7.113888889
-0.22,-0.02,7.116666667
-0.25,-0.03,7.119444444
-0.24,-0.02,7.122222222
-0.24,-0.01,7.125
-0.25,-0.02,7.127777778
-0.25,-0.03,7.130555556
-0.26,-0.03,7.133333333
-0.28,-0.03,7.136111111
-0.27,-0.03,7.138888889
-0.28,-0.02,7.141666667
-0.31,-0.04,7.144444444
-0.33,-0.06,7.147222222
-0.34,-0.06,7.15
-0.35,-0.05,7.152777778
-0.36,-0.03,7.155555556
-0.34,-0.02,7.158333333
-0.34,-0.03,7.161111111
-0.34,-0.04,7.163888889
-0.32,-0.05,7.166666667
-0.32,-0.02,7.169444444
-0.3,-0.02,7.172222222
-0.28,0.02,7.175
-0.26,0.03,7.177777778
-0.26,0.02,7.180555556
-0.25,0.03,7.183333333
-0.22,0.06,7.186111111
-0.2,0.1,7.188888889
-0.19,0.09,7.191666667
-0.21,0.1,7.194444444
-0.23,0.07,7.197222222
-0.25,0.05,7.2
-0.28,0.05,7.202777778
-0.28,0.07,7.205555556
-0.25,0.07,7.208333333
-0.22,0.07,7.211111111
-0.23,0.06,7.213888889
-0.24,0.07,7.216666667
-0.27,0.07,7.219444444
-0.28,0.09,7.222222222
-0.28,0.1,7.225
-0.29,0.12,7.227777778
-0.31,0.12,7.230555556
-0.31,0.1,7.233333333
-0.31,0.12,7.236111111
-0.29,0.12,7.238888889
-0.28,0.12,7.241666667
-0.28,0.11,7.244444444
-0.28,0.1,7.247222222
-0.28,0.09,7.25
-0.28,0.1,7.252777778
-0.28,0.1,7.255555556
-0.27,0.11,7.258333333
-0.28,0.1,7.261111111
-0.28,0.08,7.263888889
-0.27,0.07,7.266666667
-0.27,0.07,7.269444444
-0.27,0.1,7.272222222
-0.26,0.08,7.275
-0.26,0.08,7.277777778
-0.25,0.07,7.280555556
-0.25,0.07,7.283333333
-0.25,0.07,7.286111111
-0.25,0.08,7.288888889
-0.25,0.08,7.291666667
-0.23,0.08,7.294444444
-0.24,0.07,7.297222222
-0.25,0.07,7.3
-0.28,0.08,7.302777778
-0.25,0.08,7.305555556
-0.24,0.03,7.308333333
-0.23,-0.07,7.311111111
-0.2,-0.18,7.313888889
-0.15,-0.33,7.316666667
-0.07,-0.47,7.319444444
0.07,-0.66,7.322222222
0.16,-0.87,7.325
0.23,-1.11,7.327777778
0.22,-1.26,7.330555556
0.21,-1.29,7.333333333
0.23,-1.23,7.336111111
0.3,-1.16,7.338888889
0.36,-1.14,7.341666667
0.38,-1.13,7.344444444
0.38,-1.11,7.347222222
0.39,-1.11,7.35
0.4,-1.07,7.352777778
0.42,-1.05,7.355555556
0.42,-1.02,7.358333333
0.43,-1.0,7.361111111
0.4,-0.96,7.363888889
0.26,-0.92,7.366666667
0.08,-0.87,7.369444444
-0.1,-0.79,7.372222222
-0.22,-0.74,7.375
-0.33,-0.69,7.377777778
-0.47,-0.62,7.380555556
-0.61,-0.53,7.383333333
-0.71,-0.42,7.386111111
-0.72,-0.3,7.388888889
-0.66,-0.21,7.391666667
-0.58,-0.12,7.394444444
-0.52,-0.05,7.397222222
-0.48,-0.0,7.4
-0.46,0.07,7.402777778
-0.41,0.14,7.405555556
-0.34,0.2,7.408333333
-0.31,0.24,7.411111111
-0.3,0.26,7.413888889
-0.28,0.26,7.416666667
-0.28,0.29,7.419444444
-0.26,0.32,7.422222222
-0.26,0.32,7.425
-0.26,0.34,7.427777778
-0.27,0.32,7.430555556
-0.27,0.32,7.433333333
-0.28,0.32,7.436111111
-0.28,0.35,7.438888889
-0.28,0.37,7.441666667
-0.27,0.37,7.444444444
-0.31,0.37,7.447222222
-0.34,0.37,7.45
-0.33,0.39,7.452777778
-0.31,0.42,7.455555556
-0.28,0.42,7.458333333
-0.28,0.42,7.461111111
-0.29,0.42,7.463888889
-0.29,0.41,7.466666667
-0.31,0.42,7.469444444
-0.3,0.43,7.472222222
-0.31,0.45,7.475
-0.31,0.45,7.477777778
-0.33,0.44,7.480555556
-0.34,0.42,7.483333333
-0.33,0.44,7.486111111
-0.31,0.47,7.488888889
-0.32,0.47,7.491666667
-0.34,0.49,7.494444444
-0.34,0.47,7.497222222
-0.36,0.47,7.5
-0.36,0.5,7.502777778
-0.36,0.52,7.505555556
-0.34,0.52,7.508333333
-0.34,0.5,7.511111111
-0.34,0.49,7.513888889
-0.34,0.48,7.516666667
-0.37,0.47,7.519444444
-0.37,0.49,7.522222222
-0.36,0.52,7.525
-0.35,0.52,7.527777778
-0.37,0.5,7.530555556
-0.37,0.49,7.533333333
-0.4,0.49,7.536111111
-0.37,0.49,7.538888889
-0.37,0.5,7.541666667
-0.36,0.5,7.544444444
-0.36,0.49,7.547222222
-0.37,0.5,7.55
-0.4,0.49,7.552777778
-0.39,0.52,7.555555556
-0.36,0.52,7.558333333
-0.37,0.52,7.561111111
-0.36,0.5,7.563888889
-0.37,0.51,7.566666667
-0.37,0.5,7.569444444
-0.36,0.52,7.572222222
-0.34,0.52,7.575
-0.34,0.51,7.577777778
-0.34,0.49,7.580555556
-0.36,0.47,7.583333333
-0.37,0.45,7.586111111
-0.36,0.47,7.588888889
-0.32,0.49,7.591666667
-0.33,0.46,7.594444444
-0.31,0.44,7.597222222
-0.31,0.44,7.6
-0.31,0.44,7.602777778
-0.3,0.44,7.605555556
-0.28,0.43,7.608333333
-0.28,0.4,7.611111111
-0.29,0.38,7.613888889
-0.3,0.35,7.616666667
-0.28,0.35,7.619444444
-0.26,0.34,7.622222222
-0.25,0.35,7.625
-0.24,0.33,7.627777778
-0.25,0.3,7.630555556
-0.24,0.29,7.633333333
-0.23,0.27,7.636111111
-0.2,0.26,7.638888889
-0.18,0.24,7.641666667
-0.19,0.22,7.644444444
-0.21,0.21,7.647222222
-0.21,0.2,7.65
-0.19,0.2,7.652777778
-0.16,0.2,7.655555556
-0.16,0.2,7.658333333
-0.16,0.19,7.661111111
-0.18,0.18,7.663888889
-0.19,0.17,7.666666667
-0.18,0.17,7.669444444
-0.16,0.17,7.672222222
-0.15,0.19,7.675
-0.16,0.18,7.677777778
-0.16,0.17,7.680555556
-0.16,0.17,7.683333333
-0.16,0.17,7.686111111
-0.15,0.18,7.688888889
-0.16,0.19,7.691666667
-0.16,0.18,7.694444444
-0.19,0.16,7.697222222
-0.2,0.15,7.7
-0.19,0.15,7.702777778
-0.18,0.17,7.705555556
-0.16,0.17,7.708333333
-0.17,0.17,7.711111111
-0.16,0.17,7.713888889
-0.19,0.15,7.716666667
-0.2,0.17,7.719444444
-0.2,0.18,7.722222222
-0.19,0.18,7.725
-0.19,0.19,7.727777778
-0.19,0.18,7.730555556
-0.22,0.18,7.733333333
-0.22,0.2,7.736111111
-0.22,0.2,7.738888889
-0.19,0.21,7.741666667
-0.2,0.2,7.744444444
-0.21,0.2,7.747222222
-0.22,0.18,7.75
-0.23,0.2,7.752777778
-0.23,0.2,7.755555556
-0.21,0.2,7.758333333
-0.2,0.2,7.761111111
-0.21,0.18,7.763888889
-0.23,0.17,7.766666667
-0.25,0.18,7.769444444
-0.23,0.2,7.772222222
-0.22,0.2,7.775
-0.22,0.2,7.777777778
-0.24,0.2,7.780555556
-0.25,0.18,7.783333333
-0.27,0.19,7.786111111
-0.25,0.21,7.788888889
-0.25,0.21,7.791666667
-0.24,0.2,7.794444444
-0.25,0.2,7.797222222
-0.26,0.2,7.8
-0.26,0.2,7.802777778
-0.26,0.22,7.805555556
-0.25,0.21,7.808333333
-0.25,0.2,7.811111111
-0.26,0.19,7.813888889
-0.26,0.17,7.816666667
-0.26,0.17,7.819444444
-0.25,0.18,7.822222222
-0.23,0.2,7.825
-0.24,0.2,7.827777778
-0.25,0.18,7.830555556
-0.25,0.17,7.833333333
-0.25,0.17,7.836111111
-0.23,0.19,7.838888889
-0.24,0.19,7.841666667
-0.24,0.19,7.844444444
-0.25,0.17,7.847222222
-0.25,0.17,7.85
-0.26,0.18,7.852777778
-0.25,0.19,7.855555556
-0.24,0.19,7.858333333
-0.24,0.19,7.861111111
-0.24,0.17,7.863888889
-0.26,0.16,7.866666667
-0.25,0.17,7.869444444
-0.23,0.18,7.872222222
-0.23,0.17,7.875
-0.23,0.17,7.877777778
-0.25,0.17,7.880555556
-0.23,0.15,7.883333333
-0.25,0.15,7.886111111
-0.23,0.15,7.888888889
-0.23,0.17,7.891666667
-0.21,0.17,7.894444444
-0.22,0.16,7.897222222
-0.24,0.15,7.9
-0.23,0.17,7.902777778
-0.22,0.17,7.905555556
-0.22,0.19,7.908333333
-0.22,0.18,7.911111111
-0.22,0.17,7.913888889
-0.23,0.15,7.916666667
-0.22,0.16,7.919444444
-0.22,0.17,7.922222222
-0.22,0.18,7.925
-0.22,0.17,7.927777778
-0.22,0.17,7.930555556
-0.22,0.15,7.933333333
-0.23,0.15,7.936111111
-0.22,0.17,7.938888889
-0.2,0.17,7.941666667
-0.2,0.16,7.944444444
-0.21,0.15,7.947222222
-0.22,0.15,7.95
-0.22,0.16,7.952777778
-0.22,0.16,7.955555556
-0.19,0.17,7.958333333
-0.2,0.18,7.961111111
-0.22,0.17,7.963888889
-0.22,0.16,7.966666667
-0.22,0.17,7.969444444
-0.21,0.17,7.972222222
-0.2,0.17,7.975
-0.2,0.16,7.977777778
-0.22,0.15,7.980555556
-0.21,0.14,7.983333333
-0.22,0.15,7.986111111
-0.21,0.15,7.988888889
-0.2,0.15,7.991666667
-0.19,0.15,7.994444444
-0.21,0.15,7.997222222
-0.21,0.13,8.0
-0.22,0.15,8.002777778
-0.22,0.17,8.005555556
-0.2,0.17,8.008333333
-0.19,0.17,8.011111111
-0.19,0.15,8.013888889
-0.2,0.15,8.016666667
-0.22,0.17,8.019444444
-0.2,0.17,8.022222222
-0.19,0.17,8.025
-0.18,0.17,8.027777778
-0.19,0.17,8.030555556
-0.2,0.15,8.033333333
-0.2,0.15,8.036111111
-0.19,0.15,8.038888889
-0.17,0.16,8.041666667
-0.19,0.16,8.044444444
-0.19,0.15,8.047222222
-0.2,0.14,8.05
-0.2,0.15,8.052777778
-0.19,0.15,8.055555556
-0.19,0.15,8.058333333
-0.19,0.17,8.061111111
-0.19,0.15,8.063888889
-0.2,0.16,8.066666667
-0.21,0.15,8.069444444
-0.19,0.17,8.072222222
-0.19,0.18,8.075
-0.19,0.17,8.077777778
-0.19,0.15,8.080555556
-0.2,0.15,8.083333333
-0.21,0.15,8.086111111
-0.19,0.17,8.088888889
-0.19,0.15,8.091666667
-0.19,0.15,8.094444444
-0.19,0.13,8.097222222
-0.2,0.13,8.1
-0.21,0.14,8.102777778
-0.2,0.15,8.105555556
-0.16,0.16,8.108333333
-0.17,0.16,8.111111111
-0.2,0.15,8.113888889
-0.19,0.14,8.116666667
-0.19,0.15,8.119444444
-0.17,0.16,8.122222222
-0.17,0.17,8.125
-0.18,0.17,8.127777778
-0.19,0.15,8.130555556
-0.19,0.15,8.133333333
-0.2,0.14,8.136111111
-0.19,0.15,8.138888889
-0.17,0.15,8.141666667
-0.17,0.15,8.144444444
-0.19,0.13,8.147222222
-0.19,0.13,8.15
-0.2,0.15,8.152777778
-0.19,0.15,8.155555556
-0.18,0.17,8.158333333
-0.18,0.15,8.161111111
-0.19,0.14,8.163888889
-0.19,0.13,8.166666667
-0.2,0.15,8.169444444
-0.19,0.16,8.172222222
-0.16,0.17,8.175
-0.17,0.16,8.177777778
-0.17,0.15,8.180555556
-0.19,0.14,8.183333333
-0.19,0.15,8.186111111
-0.19,0.15,8.188888889
-0.18,0.16,8.191666667
-0.19,0.15,8.194444444
-0.19,0.13,8.197222222
-0.2,0.14,8.2
-0.19,0.15,8.202777778
-0.16,0.16,8.205555556
-0.16,0.15,8.208333333
-0.19,0.15,8.211111111
-0.19,0.15,8.213888889
-0.2,0.14,8.216666667
-0.19,0.15,8.219444444
-0.17,0.16,8.222222222
-0.17,0.17,8.225
-0.16,0.16,8.227777778
-0.17,0.15,8.230555556
-0.19,0.15,8.233333333
-0.2,0.15,8.236111111
-0.2,0.16,8.238888889
-0.18,0.16,8.241666667
-0.17,0.16,8.244444444
-0.18,0.15,8.247222222
-0.19,0.13,8.25
-0.19,0.15,8.252777778
-0.19,0.15,8.255555556
-0.17,0.15,8.258333333
-0.18,0.15,8.261111111
-0.17,0.15,8.263888889
-0.18,0.15,8.266666667
-0.19,0.15,8.269444444
-0.19,0.16,8.272222222
-0.17,0.17,8.275
-0.16,0.17,8.277777778
-0.17,0.16,8.280555556
-0.19,0.15,8.283333333
-0.2,0.17,8.286111111
-0.19,0.17,8.288888889
-0.18,0.18,8.291666667
-0.16,0.17,8.294444444
-0.16,0.17,8.297222222
-0.19,0.15,8.3
-0.19,0.16,8.302777778
-0.17,0.16,8.305555556
-0.16,0.17,8.308333333
-0.19,0.17,8.311111111
-0.19,0.17,8.313888889
-0.19,0.15,8.316666667
-0.2,0.17,8.319444444
-0.19,0.16,8.322222222
-0.19,0.17,8.325
-0.18,0.17,8.327777778
-0.19,0.15,8.330555556
-0.19,0.15,8.333333333
-0.19,0.17,8.336111111
-0.19,0.18,8.338888889
-0.17,0.19,8.341666667
-0.19,0.17,8.344444444
-0.19,0.16,8.347222222
-0.19,0.16,8.35
-0.19,0.14,8.352777778
-0.19,0.16,8.355555556
-0.19,0.17,8.358333333
-0.19,0.17,8.361111111
-0.19,0.16,8.363888889
-0.2,0.15,8.366666667
-0.21,0.17,8.369444444
-0.19,0.16,8.372222222
-0.18,0.18,8.375
-0.18,0.17,8.377777778
-0.19,0.17,8.380555556
-0.2,0.15,8.383333333
-0.21,0.17,8.386111111
-0.19,0.2,8.388888889
-0.19,0.19,8.391666667
-0.2,0.19,8.394444444
-0.19,0.17,8.397222222
-0.2,0.17,8.4
-0.21,0.17,8.402777778
-0.19,0.18,8.405555556
-0.19,0.18,8.408333333
-0.19,0.18,8.411111111
-0.2,0.17,8.413888889
-0.2,0.15,8.416666667
-0.2,0.17,8.419444444
-0.2,0.17,8.422222222
-0.19,0.17,8.425
-0.2,0.18,8.427777778
-0.19,0.17,8.430555556
-0.19,0.15,8.433333333
-0.2,0.18,8.436111111
-0.2,0.18,8.438888889
-0.19,0.2,8.441666667
-0.19,0.18,8.444444444
-0.2,0.17,8.447222222
-0.2,0.18,8.45
-0.21,0.18,8.452777778
-0.19,0.19,8.455555556
-0.19,0.18,8.458333333
-0.19,0.18,8.461111111
-0.19,0.18,8.463888889
-0.21,0.16,8.466666667
-0.2,0.17,8.469444444
-0.19,0.17,8.472222222
-0.2,0.19,8.475
-0.21,0.18,8.477777778
-0.22,0.17,8.480555556
-0.22,0.16,8.483333333
-0.2,0.18,8.486111111
-0.19,0.18,8.488888889
-0.18,0.18,8.491666667
-0.19,0.17,8.494444444
-0.2,0.17,8.497222222
-0.22,0.18,8.5
-0.22,0.18,8.502777778
-0.2,0.2,8.505555556
-0.2,0.2,8.508333333
-0.19,0.2,8.511111111
-0.2,0.17,8.513888889
-0.22,0.17,8.516666667
-0.2,0.17,8.519444444
-0.19,0.17,8.522222222
-0.19,0.18,8.525
-0.2,0.17,8.527777778
-0.2,0.17,8.530555556
-0.21,0.17,8.533333333
-0.19,0.17,8.536111111
-0.17,0.2,8.538888889
-0.16,0.2,8.541666667
-0.17,0.2,8.544444444
-0.17,0.2,8.547222222
-0.18,0.2,8.55
-0.17,0.22,8.552777778
-0.17,0.22,8.555555556
-0.16,0.22,8.558333333
-0.15,0.21,8.561111111
-0.15,0.2,8.563888889
-0.11,0.18,8.566666667
-0.08,0.19,8.569444444
-0.07,0.18,8.572222222
-0.04,0.18,8.575
-0.02,0.18,8.577777778
-0.04,0.19,8.580555556
-0.04,0.17,8.583333333
-0.04,0.18,8.586111111
-0.02,0.2,8.588888889
-0.02,0.2,8.591666667
-0.03,0.2,8.594444444
-0.04,0.19,8.597222222
-0.05,0.18,8.6
-0.04,0.2,8.602777778
-0.05,0.2,8.605555556
-0.09,0.2,8.608333333
-0.14,0.19,8.611111111
-0.17,0.17,8.613888889
-0.19,0.18,8.616666667
-0.2,0.2,8.619444444
-0.2,0.2,8.622222222
-0.24,0.2,8.625
-0.26,0.17,8.627777778
-0.27,0.15,8.630555556
-0.26,0.15,8.633333333
-0.25,0.16,8.636111111
-0.24,0.17,8.638888889
-0.23,0.17,8.641666667
-0.23,0.16,8.644444444
-0.25,0.15,8.647222222
-0.26,0.14,8.65
-0.27,0.15,8.652777778
-0.26,0.15,8.655555556
-0.25,0.17,8.658333333
-0.24,0.15,8.661111111
-0.25,0.15,8.663888889
-0.25,0.15,8.666666667
-0.26,0.15,8.669444444
-0.25,0.17,8.672222222
-0.24,0.17,8.675
-0.23,0.17,8.677777778
-0.26,0.15,8.680555556
-0.27,0.15,8.683333333
-0.27,0.14,8.686111111
-0.23,0.14,8.688888889
-0.22,0.15,8.691666667
-0.22,0.14,8.694444444
-0.24,0.13,8.697222222
-0.25,0.12,8.7
-0.25,0.13,8.702777778
-0.23,0.13,8.705555556
-0.22,0.13,8.708333333
-0.23,0.15,8.711111111
-0.23,0.14,8.713888889
-0.23,0.14,8.716666667
-0.22,0.12,8.719444444
-0.19,0.08,8.722222222
-0.19,0.0,8.725
-0.13,-0.08,8.727777778
-0.06,-0.18,8.730555556
0.02,-0.3,8.733333333
0.13,-0.45,8.736111111
0.26,-0.64,8.738888889
0.36,-0.86,8.741666667
0.37,-1.01,8.744444444
0.33,-1.05,8.747222222
0.32,-1.04,8.75
0.36,-0.99,8.752777778
0.42,-0.95,8.755555556
0.46,-0.92,8.758333333
0.46,-0.87,8.761111111
0.45,-0.86,8.763888889
0.46,-0.84,8.766666667
0.49,-0.82,8.769444444
0.53,-0.79,8.772222222
0.54,-0.75,8.775
0.52,-0.72,8.777777778
0.45,-0.69,8.780555556
0.31,-0.66,8.783333333
0.14,-0.62,8.786111111
0.01,-0.57,8.788888889
-0.11,-0.53,8.791666667
-0.28,-0.5,8.794444444
-0.48,-0.46,8.797222222
-0.66,-0.38,8.8
-0.76,-0.3,8.802777778
-0.78,-0.21,8.805555556
-0.72,-0.14,8.808333333
-0.64,-0.08,8.811111111
-0.6,-0.04,8.813888889
-0.58,0.03,8.816666667
-0.57,0.11,8.819444444
-0.52,0.17,8.822222222
-0.47,0.22,8.825
-0.44,0.27,8.827777778
-0.41,0.3,8.830555556
-0.4,0.31,8.833333333
-0.39,0.34,8.836111111
-0.39,0.37,8.838888889
-0.39,0.38,8.841666667
-0.39,0.37,8.844444444
-0.4,0.37,8.847222222
-0.39,0.37,8.85
-0.41,0.39,8.852777778
-0.4,0.4,8.855555556
-0.39,0.4,8.858333333
-0.4,0.4,8.861111111
-0.41,0.39,8.863888889
-0.41,0.4,8.866666667
-0.42,0.4,8.869444444
-0.42,0.44,8.872222222
-0.41,0.42,8.875
-0.4,0.44,8.877777778
-0.42,0.43,8.880555556
-0.43,0.42,8.883333333
-0.44,0.45,8.886111111
-0.43,0.45,8.888888889
-0.41,0.46,8.891666667
-0.42,0.45,8.894444444
-0.43,0.45,8.897222222
-0.43,0.45,8.9
-0.43,0.47,8.902777778
-0.42,0.47,8.905555556
-0.42,0.47,8.908333333
-0.4,0.47,8.911111111
-0.42,0.45,8.913888889
-0.43,0.47,8.916666667
-0.43,0.47,8.919444444
-0.42,0.48,8.922222222
-0.42,0.49,8.925
-0.42,0.47,8.927777778
-0.43,0.47,8.930555556
-0.43,0.47,8.933333333
-0.43,0.47,8.936111111
-0.43,0.49,8.938888889
-0.4,0.49,8.941666667
-0.42,0.49,8.944444444
-0.42,0.48,8.947222222
-0.43,0.48,8.95
-0.43,0.49,8.952777778
-0.43,0.49,8.955555556
-0.41,0.49,8.958333333
-0.41,0.49,8.961111111
-0.43,0.47,8.963888889
-0.43,0.47,8.966666667
-0.43,0.47,8.969444444
-0.42,0.48,8.972222222
-0.42,0.48,8.975
-0.42,0.48,8.977777778
-0.43,0.46,8.980555556
-0.43,0.45,8.983333333
-0.42,0.47,8.986111111
-0.42,0.48,8.988888889
-0.4,0.49,8.991666667
-0.41,0.48,8.994444444
-0.4,0.47,8.997222222
-0.42,0.45,9.0
-0.4,0.47,9.002777778
-0.39,0.46,9.005555556
-0.37,0.46,9.008333333
-0.38,0.44,9.011111111
-0.39,0.42,9.013888889
-0.39,0.42,9.016666667
-0.38,0.42,9.019444444
-0.37,0.42,9.022222222
-0.35,0.42,9.025
-0.34,0.4,9.027777778
-0.36,0.4,9.030555556
-0.36,0.39,9.033333333
-0.34,0.39,9.036111111
-0.33,0.39,9.038888889
-0.31,0.37,9.041666667
-0.31,0.37,9.044444444
-0.31,0.35,9.047222222
-0.31,0.34,9.05
-0.29,0.35,9.052777778
-0.27,0.34,9.055555556
-0.25,0.33,9.058333333
-0.24,0.32,9.061111111
-0.23,0.3,9.063888889
-0.22,0.27,9.066666667
-0.22,0.27,9.069444444
-0.19,0.27,9.072222222
-0.17,0.27,9.075
-0.14,0.29,9.077777778
-0.15,0.27,9.080555556
-0.14,0.27,9.083333333
-0.14,0.27,9.086111111
-0.11,0.29,9.088888889
-0.08,0.27,9.091666667
-0.06,0.27,9.094444444
-0.04,0.27,9.097222222
-0.02,0.25,9.1
-0.02,0.25,9.102777778
0.01,0.26,9.105555556
0.04,0.25,9.108333333
0.04,0.25,9.111111111
0.05,0.23,9.113888889
0.06,0.2,9.116666667
0.07,0.21,9.119444444
0.08,0.22,9.122222222
0.11,0.22,9.125
0.12,0.23,9.127777778
0.1,0.2,9.130555556
0.07,0.21,9.133333333
0.02,0.22,9.136111111
0.0,0.22,9.138888889
-0.02,0.21,9.141666667
-0.07,0.21,9.144444444
-0.1,0.2,9.147222222
-0.15,0.21,9.15
-0.19,0.22,9.152777778
-0.22,0.22,9.155555556
-0.24,0.22,9.158333333
-0.25,0.22,9.161111111
-0.24,0.21,9.163888889
-0.25,0.2,9.166666667
-0.25,0.22,9.169444444
-0.25,0.22,9.172222222
-0.25,0.2,9.175
-0.25,0.22,9.177777778
-0.25,0.21,9.180555556
-0.27,0.21,9.183333333
-0.28,0.21,9.186111111
-0.28,0.22,9.188888889
-0.28,0.22,9.191666667
-0.28,0.23,9.194444444
-0.3,0.22,9.197222222
-0.3,0.22,9.2
-0.31,0.24,9.202777778
-0.3,0.25,9.205555556
-0.3,0.25,9.208333333
-0.31,0.27,9.211111111
-0.32,0.26,9.213888889
-0.34,0.25,9.216666667
-0.36,0.25,9.219444444
-0.36,0.27,9.222222222
-0.34,0.26,9.225
-0.34,0.26,9.227777778
-0.34,0.25,9.230555556
-0.37,0.24,9.233333333
-0.39,0.25,9.236111111
-0.38,0.25,9.238888889
-0.36,0.25,9.241666667
-0.37,0.24,9.244444444
-0.38,0.24,9.247222222
-0.39,0.24,9.25
-0.4,0.24,9.252777778
-0.38,0.25,9.255555556
-0.37,0.24,9.258333333
-0.37,0.25,9.261111111
-0.38,0.22,9.263888889
-0.38,0.22,9.266666667
-0.37,0.24,9.269444444
-0.36,0.24,9.272222222
-0.35,0.22,9.275
-0.36,0.24,9.277777778
-0.36,0.21,9.280555556
-0.37,0.22,9.283333333
-0.37,0.22,9.286111111
-0.37,0.22,9.288888889
-0.36,0.18,9.291666667
-0.35,0.09,9.294444444
-0.31,-0.01,9.297222222
-0.23,-0.14,9.3
-0.13,-0.27,9.302777778
0.0,-0.44,9.305555556
0.11,-0.67,9.308333333
0.19,-0.91,9.311111111
0.19,-1.08,9.313888889
0.19,-1.11,9.316666667
0.25,-1.05,9.319444444
0.32,-0.99,9.322222222
0.37,-0.96,9.325
0.4,-0.94,9.327777778
0.43,-0.92,9.330555556
0.46,-0.9,9.333333333
0.51,-0.87,9.336111111
0.52,-0.86,9.338888889
0.52,-0.84,9.341666667
0.5,-0.8,9.344444444
0.45,-0.79,9.347222222
0.34,-0.74,9.35
0.14,-0.69,9.352777778
-0.06,-0.63,9.355555556
-0.2,-0.59,9.358333333
-0.35,-0.53,9.361111111
-0.54,-0.47,9.363888889
-0.73,-0.39,9.366666667
-0.83,-0.27,9.369444444
-0.78,-0.16,9.372222222
-0.69,-0.1,9.375
-0.6,-0.03,9.377777778
-0.57,0.05,9.380555556
-0.54,0.1,9.383333333
-0.49,0.17,9.386111111
-0.43,0.23,9.388888889
-0.39,0.27,9.391666667
-0.37,0.32,9.394444444
-0.37,0.31,9.397222222
-0.36,0.32,9.4
-0.36,0.34,9.402777778
-0.35,0.35,9.405555556
-0.36,0.36,9.408333333
-0.35,0.37,9.411111111
-0.36,0.37,9.413888889
-0.36,0.37,9.416666667
-0.36,0.39,9.419444444
-0.36,0.4,9.422222222
-0.35,0.41,9.425
-0.37,0.42,9.427777778
-0.37,0.42,9.430555556
-0.37,0.42,9.433333333
-0.37,0.43,9.436111111
-0.37,0.44,9.438888889
-0.36,0.44,9.441666667
-0.37,0.42,9.444444444
-0.37,0.42,9.447222222
-0.37,0.43,9.45
-0.39,0.44,9.452777778
-0.39,0.45,9.455555556
-0.39,0.45,9.458333333
-0.37,0.45,9.461111111
-0.38,0.44,9.463888889
-0.39,0.45,9.466666667
-0.4,0.47,9.469444444
-0.39,0.49,9.472222222
-0.37,0.48,9.475
-0.37,0.49,9.477777778
-0.4,0.47,9.480555556
-0.41,0.48,9.483333333
-0.41,0.49,9.486111111
-0.4,0.5,9.488888889
-0.39,0.51,9.491666667
-0.4,0.51,9.494444444
-0.4,0.5,9.497222222
-0.42,0.5,9.5
-0.42,0.52,9.502777778
-0.4,0.52,9.505555556
-0.4,0.52,9.508333333
-0.42,0.51,9.511111111
-0.41,0.5,9.513888889
-0.42,0.52,9.516666667
-0.42,0.52,9.519444444
-0.41,0.52,9.522222222
-0.4,0.53,9.525
-0.4,0.52,9.527777778
-0.4,0.52,9.530555556
-0.42,0.51,9.533333333
-0.4,0.53,9.536111111
-0.41,0.54,9.538888889
-0.4,0.55,9.541666667
-0.4,0.54,9.544444444
-0.4,0.52,9.547222222
-0.4,0.52,9.55
-0.41,0.51,9.552777778
-0.39,0.54,9.555555556
-0.36,0.52,9.558333333
-0.36,0.5,9.561111111
-0.37,0.5,9.563888889
-0.38,0.49,9.566666667
-0.37,0.49,9.569444444
-0.36,0.49,9.572222222
-0.35,0.48,9.575
-0.34,0.49,9.577777778
-0.34,0.47,9.580555556
-0.34,0.45,9.583333333
-0.34,0.46,9.586111111
-0.31,0.47,9.588888889
-0.3,0.45,9.591666667
-0.3,0.43,9.594444444
-0.28,0.42,9.597222222
-0.3,0.4,9.6
-0.29,0.4,9.602777778
-0.28,0.39,9.605555556
-0.25,0.39,9.608333333
-0.24,0.37,9.611111111
-0.24,0.34,9.613888889
-0.23,0.32,9.616666667
-0.23,0.31,9.619444444
-0.22,0.31,9.622222222
-0.19,0.3,9.625
-0.19,0.29,9.627777778
-0.19,0.27,9.630555556
-0.21,0.25,9.633333333
-0.2,0.27,9.636111111
-0.17,0.26,9.638888889
-0.17,0.26,9.641666667
-0.16,0.24,9.644444444
-0.16,0.24,9.647222222
-0.17,0.22,9.65
-0.18,0.22,9.652777778
-0.17,0.24,9.655555556
-0.15,0.24,9.658333333
-0.16,0.24,9.661111111
-0.17,0.22,9.663888889
-0.17,0.21,9.666666667
-0.17,0.22,9.669444444
-0.17,0.22,9.672222222
-0.16,0.22,9.675
-0.16,0.21,9.677777778
-0.16,0.2,9.680555556
-0.19,0.2,9.683333333
-0.17,0.2,9.686111111
-0.16,0.21,9.688888889
-0.16,0.22,9.691666667
-0.16,0.22,9.694444444
-0.17,0.21,9.697222222
-0.18,0.2,9.7
-0.19,0.2,9.702777778
-0.18,0.22,9.705555556
-0.17,0.22,9.708333333
-0.17,0.22,9.711111111
-0.18,0.21,9.713888889
-0.2,0.2,9.716666667
-0.22,0.22,9.719444444
-0.19,0.23,9.722222222
-0.19,0.23,9.725
-0.19,0.22,9.727777778
-0.2,0.2,9.730555556
-0.22,0.2,9.733333333
-0.22,0.2,9.736111111
-0.21,0.22,9.738888889
-0.2,0.21,9.741666667
-0.21,0.22,9.744444444
-0.22,0.2,9.747222222
-0.23,0.2,9.75
-0.23,0.2,9.752777778
-0.22,0.2,9.755555556
-0.22,0.21,9.758333333
-0.21,0.22,9.761111111
-0.22,0.21,9.763888889
-0.23,0.21,9.766666667
-0.22,0.2,9.769444444
-0.23,0.22,9.772222222
-0.23,0.22,9.775
-0.22,0.2,9.777777778
-0.23,0.2,9.780555556
-0.23,0.2,9.783333333
-0.23,0.2,9.786111111
-0.22,0.21,9.788888889
-0.22,0.19,9.791666667
-0.22,0.2,9.794444444
-0.23,0.18,9.797222222
-0.25,0.17,9.8
-0.23,0.19,9.802777778
-0.23,0.19,9.805555556
-0.22,0.18,9.808333333
-0.21,0.18,9.811111111
-0.21,0.17,9.813888889
-0.23,0.17,9.816666667
-0.23,0.18,9.819444444
-0.23,0.18,9.822222222
-0.22,0.18,9.825
-0.2,0.18,9.827777778
-0.21,0.17,9.830555556
-0.22,0.17,9.833333333
-0.2,0.18,9.836111111
-0.2,0.2,9.838888889
-0.19,0.2,9.841666667
-0.19,0.18,9.844444444
-0.19,0.17,9.847222222
-0.2,0.17,9.85
-0.2,0.17,9.852777778
-0.19,0.19,9.855555556
-0.19,0.18,9.858333333
-0.18,0.17,9.861111111
-0.19,0.16,9.863888889
-0.2,0.17,9.866666667
-0.19,0.17,9.869444444
-0.19,0.18,9.872222222
-0.19,0.18,9.875
-0.17,0.18,9.877777778
-0.17,0.17,9.880555556
-0.19,0.17,9.883333333
-0.19,0.18,9.886111111
-0.18,0.2,9.888888889
-0.19,0.2,9.891666667
-0.16,0.19,9.894444444
-0.17,0.18,9.897222222
-0.17,0.18,9.9
-0.19,0.19,9.902777778
-0.18,0.2,9.905555556
-0.16,0.18,9.908333333
-0.17,0.18,9.911111111
-0.17,0.17,9.913888889
-0.18,0.17,9.916666667
-0.19,0.18,9.919444444
-0.17,0.2,9.922222222
-0.15,0.2,9.925
-0.16,0.2,9.927777778
-0.16,0.17,9.930555556
-0.16,0.17,9.933333333
-0.17,0.18,9.936111111
-0.16,0.19,9.938888889
-0.16,0.2,9.941666667
-0.17,0.19,9.944444444
-0.17,0.18,9.947222222
-0.18,0.17,9.95
-0.19,0.18,9.952777778
-0.16,0.19,9.955555556
-0.16,0.2,9.958333333
-0.16,0.18,9.961111111
-0.16,0.17,9.963888889
-0.18,0.16,9.966666667
-0.17,0.17,9.969444444
-0.16,0.18,9.972222222
-0.16,0.18,9.975
-0.16,0.17,9.977777778
-0.17,0.16,9.980555556
-0.17,0.17,9.983333333
-0.17,0.17,9.986111111
-0.16,0.18,9.988888889
-0.16,0.18,9.991666667
-0.16,0.2,9.994444444
-0.16,0.17,9.997222222
-0.17,0.17,10.0
-0.18,0.18,10.00277778
-0.16,0.18,10.00555556
-0.16,0.19,10.00833333
-0.16,0.19,10.01111111
-0.16,0.18,10.01388889
-0.17,0.18,10.01666667
-0.16,0.19,10.01944444
-0.16,0.2,10.02222222
-0.14,0.19,10.025
-0.16,0.18,10.02777778
-0.16,0.17,10.03055556
-0.16,0.15,10.03333333
-0.16,0.17,10.03611111
-0.15,0.17,10.03888889
-0.13,0.18,10.04166667
-0.16,0.18,10.04444444
-0.16,0.16,10.04722222
-0.17,0.17,10.05
-0.18,0.16,10.05277778
-0.16,0.18,10.05555556
-0.14,0.17,10.05833333
-0.15,0.17,10.06111111
-0.17,0.17,10.06388889
-0.17,0.17,10.06666667
-0.16,0.19,10.06944444
-0.16,0.19,10.07222222
-0.14,0.2,10.075
-0.15,0.2,10.07777778
-0.16,0.18,10.08055556
-0.16,0.17,10.08333333
-0.17,0.17,10.08611111
-0.16,0.19,10.08888889
-0.16,0.18,10.09166667
-0.16,0.17,10.09444444
-0.16,0.17,10.09722222
-0.19,0.17,10.1
-0.16,0.18,10.10277778
-0.16,0.19,10.10555556
-0.16,0.18,10.10833333
-0.16,0.2,10.11111111
-0.16,0.18,10.11388889
-0.17,0.17,10.11666667
-0.16,0.18,10.11944444
-0.16,0.2,10.12222222
-0.14,0.19,10.125
-0.14,0.2,10.12777778
-0.16,0.19,10.13055556
-0.15,0.19,10.13333333
-0.16,0.2,10.13611111
-0.16,0.2,10.13888889
-0.13,0.2,10.14166667
-0.13,0.19,10.14444444
-0.14,0.17,10.14722222
-0.16,0.18,10.15
-0.17,0.17,10.15277778
-0.16,0.18,10.15555556
-0.14,0.18,10.15833333
-0.14,0.18,10.16111111
-0.16,0.17,10.16388889
-0.16,0.17,10.16666667
-0.16,0.17,10.16944444
-0.14,0.18,10.17222222
-0.16,0.19,10.175
-0.15,0.18,10.17777778
-0.16,0.17,10.18055556
-0.17,0.17,10.18333333
-0.17,0.19,10.18611111
-0.16,0.18,10.18888889
-0.14,0.2,10.19166667
-0.14,0.2,10.19444444
-0.14,0.19,10.19722222
-0.16,0.2,10.2
-0.16,0.19,10.20277778
-0.14,0.19,10.20555556
-0.13,0.2,10.20833333
-0.13,0.18,10.21111111
-0.13,0.17,10.21388889
-0.16,0.17,10.21666667
-0.14,0.17,10.21944444
-0.14,0.2,10.22222222
-0.11,0.2,10.225
-0.1,0.21,10.22777778
-0.09,0.21,10.23055556
-0.11,0.2,10.23333333
-0.1,0.2,10.23611111
-0.08,0.22,10.23888889
-0.07,0.24,10.24166667
-0.07,0.24,10.24444444
-0.08,0.22,10.24722222
-0.08,0.22,10.25
-0.04,0.25,10.25277778
-0.02,0.25,10.25555556
0.01,0.25,10.25833333
0.01,0.24,10.26111111
0.01,0.22,10.26388889
0.02,0.22,10.26666667
0.04,0.22,10.26944444
0.04,0.22,10.27222222
0.05,0.22,10.275
0.05,0.22,10.27777778
0.05,0.2,10.28055556
0.05,0.19,10.28333333
0.07,0.2,10.28611111
0.09,0.22,10.28888889
0.1,0.22,10.29166667
0.1,0.22,10.29444444
0.07,0.21,10.29722222
0.04,0.2,10.3
0.0,0.2,10.30277778
-0.03,0.21,10.30555556
-0.04,0.22,10.30833333
-0.08,0.2,10.31111111
-0.13,0.2,10.31388889
-0.16,0.19,10.31666667
-0.2,0.2,10.31944444
-0.22,0.2,10.32222222
-0.22,0.19,10.325
-0.21,0.18,10.32777778
-0.2,0.17,10.33055556
-0.22,0.15,10.33333333
-0.22,0.15,10.33611111
-0.2,0.17,10.33888889
-0.2,0.15,10.34166667
-0.2,0.16,10.34444444
-0.22,0.15,10.34722222
-0.22,0.15,10.35
-0.22,0.15,10.35277778
-0.21,0.16,10.35555556
-0.2,0.16,10.35833333
-0.2,0.17,10.36111111
-0.22,0.17,10.36388889
-0.22,0.15,10.36666667
-0.21,0.16,10.36944444
-0.19,0.17,10.37222222
-0.19,0.17,10.375
-0.19,0.17,10.37777778
-0.21,0.15,10.38055556
-0.23,0.15,10.38333333
-0.22,0.17,10.38611111
-0.22,0.16,10.38888889
-0.2,0.17,10.39166667
-0.19,0.16,10.39444444
-0.19,0.15,10.39722222
-0.2,0.14,10.4
-0.21,0.14,10.40277778
-0.22,0.17,10.40555556
-0.2,0.15,10.40833333
-0.19,0.15,10.41111111
-0.21,0.15,10.41388889
-0.22,0.15,10.41666667
-0.22,0.15,10.41944444
-0.22,0.17,10.42222222
-0.2,0.17,10.425
-0.19,0.15,10.42777778
-0.21,0.13,10.43055556
-0.22,0.07,10.43333333
-0.21,0.02,10.43611111
-0.17,-0.07,10.43888889
-0.1,-0.17,10.44166667
-0.04,-0.28,10.44444444
0.02,-0.42,10.44722222
0.08,-0.58,10.45
0.17,-0.76,10.45277778
0.25,-0.94,10.45555556
0.27,-1.07,10.45833333
0.25,-1.15,10.46111111
0.21,-1.16,10.46388889
0.24,-1.14,10.46666667
0.28,-1.1,10.46944444
0.32,-1.09,10.47222222
0.34,-1.07,10.475
0.36,-1.04,10.47777778
0.35,-1.04,10.48055556
0.33,-1.0,10.48333333
0.33,-0.97,10.48611111
0.36,-0.96,10.48888889
0.35,-0.94,10.49166667
0.34,-0.91,10.49444444
0.33,-0.89,10.49722222
0.26,-0.86,10.5
0.14,-0.82,10.50277778
-0.01,-0.76,10.50555556
-0.13,-0.72,10.50833333
-0.22,-0.67,10.51111111
-0.33,-0.64,10.51388889
-0.47,-0.6,10.51666667
-0.58,-0.54,10.51944444
-0.66,-0.43,10.52222222
-0.72,-0.35,10.525
-0.76,-0.27,10.52777778
-0.76,-0.22,10.53055556
-0.73,-0.15,10.53333333
-0.65,-0.05,10.53611111
-0.58,0.0,10.53888889
-0.55,0.09,10.54166667
-0.52,0.12,10.54444444
-0.5,0.18,10.54722222
-0.48,0.23,10.55
-0.42,0.28,10.55277778
-0.36,0.34,10.55555556
-0.34,0.39,10.55833333
-0.33,0.4,10.56111111
-0.33,0.4,10.56388889
-0.33,0.41,10.56666667
-0.34,0.44,10.56944444
-0.33,0.45,10.57222222
-0.32,0.46,10.575
-0.34,0.46,10.57777778
-0.32,0.47,10.58055556
-0.32,0.47,10.58333333
-0.32,0.47,10.58611111
-0.32,0.49,10.58888889
-0.31,0.49,10.59166667
-0.31,0.49,10.59444444
-0.31,0.49,10.59722222
-0.33,0.49,10.6
-0.33,0.49,10.60277778
-0.32,0.52,10.60555556
-0.31,0.52,10.60833333
-0.33,0.52,10.61111111
-0.31,0.51,10.61388889
-0.32,0.52,10.61666667
-0.33,0.52,10.61944444
-0.33,0.54,10.62222222
-0.31,0.54,10.625
-0.31,0.54,10.62777778
-0.32,0.54,10.63055556
-0.34,0.54,10.63333333
-0.34,0.55,10.63611111
-0.33,0.57,10.63888889
-0.32,0.57,10.64166667
-0.33,0.54,10.64444444
-0.32,0.54,10.64722222
-0.33,0.52,10.65
-0.33,0.54,10.65277778
-0.34,0.54,10.65555556
-0.31,0.55,10.65833333
-0.32,0.54,10.66111111
-0.33,0.54,10.66388889
-0.33,0.54,10.66666667
-0.33,0.54,10.66944444
-0.32,0.54,10.67222222
-0.31,0.54,10.675
-0.31,0.54,10.67777778
-0.31,0.52,10.68055556
-0.34,0.54,10.68333333
-0.33,0.55,10.68611111
-0.33,0.55,10.68888889
-0.31,0.55,10.69166667
-0.31,0.55,10.69444444
-0.32,0.54,10.69722222
-0.31,0.54,10.7
-0.33,0.54,10.70277778
-0.33,0.55,10.70555556
-0.31,0.53,10.70833333
-0.31,0.53,10.71111111
-0.31,0.52,10.71388889
-0.31,0.52,10.71666667
-0.31,0.54,10.71944444
-0.29,0.54,10.72222222
-0.29,0.52,10.725
-0.3,0.52,10.72777778
-0.3,0.52,10.73055556
-0.3,0.5,10.73333333
-0.3,0.51,10.73611111
-0.28,0.52,10.73888889
-0.3,0.52,10.74166667
-0.3,0.51,10.74444444
-0.29,0.5,10.74722222
-0.3,0.49,10.75
-0.29,0.49,10.75277778
-0.26,0.49,10.75555556
-0.26,0.49,10.75833333
-0.26,0.47,10.76111111
-0.25,0.45,10.76388889
-0.26,0.44,10.76666667
-0.26,0.45,10.76944444
-0.25,0.44,10.77222222
-0.25,0.44,10.775
-0.24,0.42,10.77777778
-0.23,0.41,10.78055556
-0.25,0.4,10.78333333
-0.22,0.4,10.78611111
-0.22,0.4,10.78888889
-0.22,0.39,10.79166667
-0.2,0.37,10.79444444
-0.22,0.36,10.79722222
-0.22,0.34,10.8
-0.21,0.35,10.80277778
-0.19,0.35,10.80555556
-0.17,0.34,10.80833333
-0.17,0.32,10.81111111
-0.17,0.3,10.81388889
-0.17,0.28,10.81666667
-0.17,0.29,10.81944444
-0.15,0.28,10.82222222
-0.14,0.26,10.825
-0.14,0.25,10.82777778
-0.15,0.24,10.83055556
-0.16,0.25,10.83333333
-0.16,0.25,10.83611111
-0.14,0.25,10.83888889
-0.14,0.24,10.84166667
-0.13,0.24,10.84444444
-0.14,0.24,10.84722222
-0.14,0.23,10.85
-0.14,0.24,10.85277778
-0.13,0.25,10.85555556
-0.13,0.26,10.85833333
-0.13,0.25,10.86111111
-0.14,0.23,10.86388889
-0.16,0.24,10.86666667
-0.14,0.25,10.86944444
-0.14,0.25,10.87222222
-0.13,0.26,10.875
-0.13,0.25,10.87777778
-0.16,0.24,10.88055556
-0.14,0.25,10.88333333
-0.14,0.25,10.88611111
-0.15,0.27,10.88888889
-0.15,0.25,10.89166667
-0.16,0.26,10.89444444
-0.16,0.26,10.89722222
-0.17,0.27,10.9
-0.16,0.27,10.90277778
-0.16,0.29,10.90555556
-0.16,0.29,10.90833333
-0.16,0.29,10.91111111
-0.18,0.29,10.91388889
-0.19,0.29,10.91666667
-0.19,0.29,10.91944444
-0.2,0.32,10.92222222
-0.19,0.3,10.925
-0.19,0.3,10.92777778
-0.2,0.29,10.93055556
-0.21,0.3,10.93333333
-0.2,0.32,10.93611111
-0.2,0.32,10.93888889
-0.21,0.32,10.94166667
-0.22,0.33,10.94444444
-0.23,0.31,10.94722222
-0.25,0.32,10.95
-0.25,0.32,10.95277778
-0.25,0.32,10.95555556
-0.25,0.32,10.95833333
-0.27,0.33,10.96111111
-0.27,0.32,10.96388889
-0.27,0.33,10.96666667
-0.27,0.34,10.96944444
-0.28,0.35,10.97222222
-0.28,0.35,10.975
-0.28,0.34,10.97777778
-0.3,0.34,10.98055556
-0.32,0.32,10.98333333
-0.33,0.34,10.98611111
-0.32,0.34,10.98888889
-0.33,0.32,10.99166667
-0.31,0.32,10.99444444
-0.33,0.32,10.99722222
-0.36,0.3,11.0
-0.36,0.32,11.00277778
-0.34,0.32,11.00555556
-0.33,0.32,11.00833333
-0.33,0.31,11.01111111
-0.34,0.31,11.01388889
-0.36,0.3,11.01666667
-0.35,0.3,11.01944444
-0.34,0.32,11.02222222
-0.33,0.31,11.025
-0.33,0.31,11.02777778
-0.34,0.3,11.03055556
-0.33,0.3,11.03333333
-0.34,0.3,11.03611111
-0.34,0.31,11.03888889
-0.34,0.3,11.04166667
-0.33,0.29,11.04444444
-0.34,0.27,11.04722222
-0.33,0.27,11.05
-0.34,0.27,11.05277778
-0.32,0.29,11.05555556
-0.33,0.27,11.05833333
-0.3,0.27,11.06111111
-0.31,0.27,11.06388889
-0.33,0.26,11.06666667
-0.33,0.26,11.06944444
-0.31,0.29,11.07222222
-0.28,0.27,11.075
-0.28,0.26,11.07777778
-0.29,0.24,11.08055556
-0.3,0.27,11.08333333
-0.3,0.27,11.08611111
-0.28,0.29,11.08888889
-0.27,0.27,11.09166667
-0.27,0.27,11.09444444
-0.28,0.27,11.09722222
-0.28,0.25,11.1
-0.3,0.27,11.10277778
-0.28,0.28,11.10555556
-0.25,0.27,11.10833333
-0.25,0.26,11.11111111
-0.26,0.24,11.11388889
-0.27,0.25,11.11666667
-0.28,0.26,11.11944444
-0.27,0.26,11.12222222
-0.25,0.26,11.125
-0.25,0.26,11.12777778
-0.25,0.25,11.13055556
-0.26,0.25,11.13333333
-0.26,0.27,11.13611111
-0.25,0.27,11.13888889
-0.23,0.27,11.14166667
-0.25,0.27,11.14444444
-0.25,0.26,11.14722222
-0.26,0.25,11.15
-0.25,0.27,11.15277778
-0.25,0.27,11.15555556
-0.22,0.27,11.15833333
-0.22,0.27,11.16111111
-0.22,0.27,11.16388889
-0.25,0.24,11.16666667
-0.23,0.25,11.16944444
-0.22,0.27,11.17222222
-0.2,0.27,11.175
-0.21,0.25,11.17777778
-0.22,0.24,11.18055556
-0.24,0.24,11.18333333
-0.24,0.25,11.18611111
-0.22,0.26,11.18888889
-0.21,0.27,11.19166667
-0.22,0.27,11.19444444
-0.23,0.24,11.19722222
-0.23,0.24,11.2
-0.23,0.25,11.20277778
-0.22,0.27,11.20555556
-0.21,0.27,11.20833333
-0.22,0.29,11.21111111
-0.22,0.25,11.21388889
-0.23,0.25,11.21666667
-0.22,0.25,11.21944444
-0.21,0.26,11.22222222
-0.2,0.25,11.225
-0.21,0.25,11.22777778
-0.22,0.25,11.23055556
-0.22,0.25,11.23333333
-0.22,0.25,11.23611111
-0.21,0.25,11.23888889
-0.2,0.25,11.24166667
-0.22,0.24,11.24444444
-0.22,0.25,11.24722222
-0.23,0.24,11.25
-0.22,0.25,11.25277778
-0.22,0.25,11.25555556
-0.21,0.27,11.25833333
-0.22,0.25,11.26111111
-0.22,0.25,11.26388889
-0.22,0.25,11.26666667
-0.22,0.26,11.26944444
-0.21,0.27,11.27222222
-0.2,0.27,11.275
-0.22,0.27,11.27777778
-0.22,0.25,11.28055556
-0.23,0.25,11.28333333
-0.21,0.25,11.28611111
-0.2,0.27,11.28888889
-0.2,0.26,11.29166667
-0.19,0.26,11.29444444
-0.19,0.25,11.29722222
-0.2,0.25,11.3
-0.19,0.26,11.30277778
-0.17,0.27,11.30555556
-0.18,0.27,11.30833333
-0.18,0.27,11.31111111
-0.19,0.26,11.31388889
-0.19,0.27,11.31666667
-0.16,0.27,11.31944444
-0.14,0.3,11.32222222
-0.13,0.31,11.325
-0.14,0.32,11.32777778
-0.15,0.31,11.33055556
-0.15,0.32,11.33333333
-0.14,0.33,11.33611111
-0.12,0.35,11.33888889
-0.1,0.34,11.34166667
-0.08,0.34,11.34444444
-0.05,0.32,11.34722222
-0.06,0.32,11.35
-0.04,0.32,11.35277778
-0.02,0.31,11.35555556
0.0,0.33,11.35833333
0.01,0.32,11.36111111
0.0,0.3,11.36388889
0.01,0.29,11.36666667
0.03,0.3,11.36944444
0.04,0.3,11.37222222
0.06,0.3,11.375
0.07,0.3,11.37777778
0.05,0.3,11.38055556
0.05,0.3,11.38333333
0.04,0.3,11.38611111
-0.01,0.3,11.38888889
-0.05,0.3,11.39166667
-0.09,0.29,11.39444444
-0.13,0.27,11.39722222
-0.16,0.29,11.4
-0.2,0.27,11.40277778
-0.25,0.27,11.40555556
-0.25,0.25,11.40833333
-0.25,0.25,11.41111111
-0.25,0.24,11.41388889
-0.25,0.25,11.41666667
-0.24,0.24,11.41944444
-0.23,0.25,11.42222222
-0.23,0.25,11.425
-0.23,0.25,11.42777778
-0.24,0.24,11.43055556
-0.25,0.24,11.43333333
-0.25,0.25,11.43611111
-0.25,0.25,11.43888889
-0.23,0.25,11.44166667
-0.22,0.25,11.44444444
-0.23,0.25,11.44722222
-0.26,0.24,11.45
-0.26,0.25,11.45277778
-0.23,0.25,11.45555556
-0.23,0.25,11.45833333
-0.24,0.25,11.46111111
-0.23,0.23,11.46388889
-0.24,0.24,11.46666667
-0.23,0.24,11.46944444
-0.24,0.25,11.47222222
-0.22,0.24,11.475
-0.21,0.25,11.47777778
-0.22,0.24,11.48055556
-0.23,0.22,11.48333333
-0.23,0.24,11.48611111
-0.22,0.24,11.48888889
-0.21,0.25,11.49166667
-0.2,0.24,11.49444444
-0.22,0.24,11.49722222
-0.22,0.24,11.5
-0.23,0.25,11.50277778
-0.23,0.27,11.50555556
-0.22,0.27,11.50833333
-0.21,0.27,11.51111111
-0.22,0.23,11.51388889
-0.22,0.15,11.51666667
-0.19,0.07,11.51944444
-0.13,-0.02,11.52222222
-0.03,-0.12,11.525
0.09,-0.24,11.52777778
0.19,-0.4,11.53055556
0.26,-0.62,11.53333333
0.34,-0.82,11.53611111
0.36,-0.96,11.53888889
0.34,-1.01,11.54166667
0.36,-1.0,11.54444444
0.39,-0.98,11.54722222
0.43,-0.96,11.55
0.47,-0.94,11.55277778
0.51,-0.89,11.55555556
0.52,-0.86,11.55833333
0.52,-0.82,11.56111111
0.55,-0.8,11.56388889
0.57,-0.8,11.56666667
0.57,-0.76,11.56944444
0.55,-0.72,11.57222222
0.46,-0.7,11.575
0.31,-0.66,11.57777778
0.13,-0.62,11.58055556
-0.02,-0.57,11.58333333
-0.2,-0.54,11.58611111
-0.38,-0.48,11.58888889
-0.54,-0.4,11.59166667
-0.67,-0.31,11.59444444
-0.75,-0.23,11.59722222
-0.78,-0.15,11.6
-0.74,-0.08,11.60277778
-0.66,0.0,11.60555556
-0.59,0.07,11.60833333
-0.56,0.15,11.61111111
-0.56,0.2,11.61388889
-0.54,0.25,11.61666667
-0.5,0.32,11.61944444
-0.46,0.37,11.62222222
-0.4,0.42,11.625
-0.37,0.44,11.62777778
-0.37,0.44,11.63055556
-0.38,0.45,11.63333333
-0.38,0.47,11.63611111
-0.37,0.49,11.63888889
-0.37,0.5,11.64166667
-0.36,0.5,11.64444444
-0.36,0.49,11.64722222
-0.38,0.5,11.65
-0.39,0.52,11.65277778
-0.36,0.54,11.65555556
-0.37,0.54,11.65833333
-0.37,0.54,11.66111111
-0.38,0.54,11.66388889
-0.4,0.54,11.66666667
-0.4,0.55,11.66944444
-0.39,0.57,11.67222222
-0.36,0.57,11.675
-0.37,0.57,11.67777778
-0.39,0.57,11.68055556
-0.4,0.56,11.68333333
-0.4,0.57,11.68611111
-0.4,0.59,11.68888889
-0.39,0.58,11.69166667
-0.39,0.59,11.69444444
-0.4,0.58,11.69722222
-0.4,0.57,11.7
-0.4,0.59,11.70277778
-0.4,0.6,11.70555556
-0.4,0.6,11.70833333
-0.39,0.6,11.71111111
-0.4,0.6,11.71388889
-0.41,0.6,11.71666667
-0.4,0.62,11.71944444
-0.4,0.64,11.72222222
-0.38,0.62,11.725
-0.39,0.62,11.72777778
-0.39,0.62,11.73055556
-0.4,0.6,11.73333333
-0.39,0.62,11.73611111
-0.38,0.64,11.73888889
-0.39,0.63,11.74166667
-0.4,0.64,11.74444444
-0.4,0.61,11.74722222
-0.4,0.61,11.75
-0.4,0.62,11.75277778
-0.39,0.63,11.75555556
-0.39,0.63,11.75833333
-0.37,0.64,11.76111111
-0.39,0.62,11.76388889
-0.39,0.62,11.76666667
-0.4,0.62,11.76944444
-0.37,0.64,11.77222222
-0.37,0.64,11.775
-0.37,0.62,11.77777778
-0.37,0.62,11.78055556
-0.38,0.62,11.78333333
-0.36,0.62,11.78611111
-0.34,0.64,11.78888889
-0.33,0.64,11.79166667
-0.33,0.61,11.79444444
-0.34,0.6,11.79722222
-0.35,0.59,11.8
-0.34,0.58,11.80277778
-0.33,0.59,11.80555556
-0.31,0.59,11.80833333
-0.31,0.57,11.81111111
-0.32,0.57,11.81388889
-0.32,0.55,11.81666667
-0.31,0.56,11.81944444
-0.29,0.55,11.82222222
-0.28,0.54,11.825
-0.26,0.54,11.82777778
-0.26,0.52,11.83055556
-0.27,0.51,11.83333333
-0.26,0.51,11.83611111
-0.24,0.52,11.83888889
-0.22,0.49,11.84166667
-0.22,0.49,11.84444444
-0.22,0.45,11.84722222
-0.22,0.44,11.85
-0.2,0.44,11.85277778
-0.19,0.44,11.85555556
-0.19,0.42,11.85833333
-0.18,0.41,11.86111111
-0.16,0.38,11.86388889
-0.19,0.38,11.86666667
-0.17,0.38,11.86944444
-0.16,0.38,11.87222222
-0.16,0.37,11.875
-0.15,0.35,11.87777778
-0.15,0.34,11.88055556
-0.16,0.35,11.88333333
-0.16,0.35,11.88611111
-0.16,0.35,11.88888889
-0.15,0.35,11.89166667
-0.14,0.34,11.89444444
-0.16,0.34,11.89722222
-0.17,0.33,11.9
-0.15,0.34,11.90277778
-0.16,0.35,11.90555556
-0.15,0.34,11.90833333
-0.16,0.33,11.91111111
-0.16,0.32,11.91388889
-0.17,0.32,11.91666667
-0.17,0.33,11.91944444
-0.15,0.35,11.92222222
-0.15,0.35,11.925
-0.15,0.32,11.92777778
-0.16,0.35,11.93055556
-0.16,0.32,11.93333333
-0.17,0.35,11.93611111
-0.16,0.36,11.93888889
-0.16,0.35,11.94166667
-0.16,0.35,11.94444444
-0.16,0.36,11.94722222
-0.17,0.36,11.95
-0.17,0.37,11.95277778
-0.17,0.39,11.95555556
-0.17,0.37,11.95833333
-0.16,0.37,11.96111111
-0.16,0.37,11.96388889
-0.18,0.36,11.96666667
-0.18,0.37,11.96944444
-0.17,0.39,11.97222222
-0.16,0.39,11.975
-0.17,0.39,11.97777778
-0.19,0.37,11.98055556
-0.21,0.38,11.98333333
-0.22,0.4,11.98611111
-0.2,0.4,11.98888889
-0.19,0.4,11.99166667
-0.19,0.4,11.99444444
-0.21,0.4,11.99722222
-0.22,0.39,12.0
-0.23,0.4,12.00277778
-0.21,0.42,12.00555556
-0.21,0.42,12.00833333
-0.22,0.44,12.01111111
-0.23,0.42,12.01388889
-0.23,0.42,12.01666667
-0.23,0.41,12.01944444
-0.22,0.42,12.02222222
-0.23,0.42,12.025
-0.24,0.42,12.02777778
-0.25,0.4,12.03055556
-0.26,0.4,12.03333333
-0.25,0.41,12.03611111
-0.26,0.42,12.03888889
-0.25,0.41,12.04166667
-0.26,0.41,12.04444444
-0.26,0.4,12.04722222
-0.28,0.4,12.05
-0.27,0.41,12.05277778
-0.28,0.42,12.05555556
-0.28,0.42,12.05833333
-0.28,0.4,12.06111111
-0.28,0.4,12.06388889
-0.29,0.41,12.06666667
-0.29,0.42,12.06944444
-0.27,0.42,12.07222222
-0.26,0.4,12.075
-0.27,0.4,12.07777778
-0.27,0.39,12.08055556
-0.27,0.37,12.08333333
-0.27,0.39,12.08611111
-0.26,0.4,12.08888889
-0.25,0.4,12.09166667
-0.26,0.39,12.09444444
-0.25,0.37,12.09722222
-0.27,0.37,12.1
-0.26,0.4,12.10277778
-0.25,0.4,12.10555556
-0.23,0.4,12.10833333
-0.23,0.37,12.11111111
-0.23,0.37,12.11388889
-0.25,0.37,12.11666667
-0.25,0.39,12.11944444
-0.25,0.4,12.12222222
-0.23,0.4,12.125
-0.23,0.4,12.12777778
-0.22,0.39,12.13055556
-0.23,0.37,12.13333333
-0.23,0.38,12.13611111
-0.23,0.38,12.13888889
-0.22,0.37,12.14166667
-0.22,0.37,12.14444444
-0.22,0.37,12.14722222
-0.22,0.35,12.15
-0.23,0.37,12.15277778
-0.22,0.37,12.15555556
-0.2,0.37,12.15833333
-0.2,0.38,12.16111111
-0.22,0.36,12.16388889
-0.22,0.37,12.16666667
-0.22,0.37,12.16944444
-0.22,0.39,12.17222222
-0.21,0.39,12.175
-0.19,0.38,12.17777778
-0.2,0.37,12.18055556
-0.2,0.38,12.18333333
-0.22,0.39,12.18611111
-0.2,0.4,12.18888889
-0.19,0.39,12.19166667
-0.21,0.39,12.19444444
-0.2,0.37,12.19722222
-0.21,0.37,12.2
-0.2,0.38,12.20277778
-0.19,0.39,12.20555556
-0.18,0.37,12.20833333
-0.19,0.37,12.21111111
-0.2,0.36,12.21388889
-0.22,0.37,12.21666667
-0.2,0.37,12.21944444
-0.18,0.38,12.22222222
-0.17,0.38,12.225
-0.17,0.37,12.22777778
-0.18,0.36,12.23055556
-0.19,0.37,12.23333333
-0.19,0.38,12.23611111
-0.18,0.39,12.23888889
-0.16,0.4,12.24166667
-0.17,0.4,12.24444444
-0.17,0.39,12.24722222
-0.19,0.39,12.25
-0.19,0.39,12.25277778
-0.16,0.39,12.25555556
-0.14,0.4,12.25833333
-0.14,0.38,12.26111111
-0.14,0.38,12.26388889
-0.16,0.37,12.26666667
-0.13,0.39,12.26944444
-0.11,0.4,12.27222222
-0.11,0.42,12.275
-0.11,0.43,12.27777778
-0.1,0.42,12.28055556
-0.1,0.42,12.28333333
-0.09,0.43,12.28611111
-0.06,0.44,12.28888889
-0.04,0.45,12.29166667
-0.01,0.44,12.29444444
-0.01,0.44,12.29722222
0.01,0.42,12.3
0.01,0.43,12.30277778
0.04,0.44,12.30555556
0.05,0.43,12.30833333
0.04,0.42,12.31111111
0.04,0.4,12.31388889
0.04,0.4,12.31666667
0.05,0.4,12.31944444
0.08,0.41,12.32222222
0.09,0.42,12.325
0.1,0.4,12.32777778
0.07,0.41,12.33055556
0.01,0.39,12.33333333
-0.03,0.4,12.33611111
-0.07,0.4,12.33888889
-0.09,0.4,12.34166667
-0.11,0.4,12.34444444
-0.14,0.38,12.34722222
-0.19,0.39,12.35
-0.22,0.39,12.35277778
-0.22,0.39,12.35555556
-0.2,0.38,12.35833333
-0.19,0.38,12.36111111
-0.19,0.37,12.36388889
-0.22,0.37,12.36666667
-0.2,0.37,12.36944444
-0.2,0.37,12.37222222
-0.19,0.37,12.375
-0.19,0.36,12.37777778
-0.2,0.35,12.38055556
-0.22,0.35,12.38333333
-0.21,0.36,12.38611111
-0.2,0.38,12.38888889
-0.19,0.37,12.39166667
-0.19,0.37,12.39444444
-0.21,0.35,12.39722222
-0.22,0.36,12.4
-0.21,0.37,12.40277778
-0.19,0.37,12.40555556
-0.19,0.38,12.40833333
-0.19,0.38,12.41111111
-0.19,0.37,12.41388889
-0.21,0.37,12.41666667
-0.2,0.37,12.41944444
-0.19,0.38,12.42222222
-0.19,0.37,12.425
-0.19,0.36,12.42777778
-0.19,0.35,12.43055556
-0.2,0.35,12.43333333
-0.2,0.35,12.43611111
-0.18,0.37,12.43888889
-0.19,0.35,12.44166667
-0.19,0.35,12.44444444
-0.19,0.37,12.44722222
-0.2,0.37,12.45
-0.19,0.35,12.45277778
-0.19,0.3,12.45555556
-0.18,0.23,12.45833333
-0.13,0.13,12.46111111
-0.07,0.02,12.46388889
0.0,-0.12,12.46666667
0.11,-0.28,12.46944444
0.22,-0.47,12.47222222
0.3,-0.69,12.475
0.31,-0.89,12.47777778
0.27,-0.97,12.48055556
0.25,-0.96,12.48333333
0.31,-0.93,12.48611111
0.36,-0.9,12.48888889
0.39,-0.88,12.49166667
0.41,-0.84,12.49444444
0.42,-0.84,12.49722222
0.42,-0.8,12.5
0.43,-0.77,12.50277778
0.46,-0.74,12.50555556
0.47,-0.74,12.50833333
0.46,-0.7,12.51111111
0.44,-0.69,12.51388889
0.32,-0.64,12.51666667
0.15,-0.58,12.51944444
-0.01,-0.51,12.52222222
-0.13,-0.47,12.525
-0.28,-0.42,12.52777778
-0.46,-0.38,12.53055556
-0.6,-0.3,12.53333333
-0.7,-0.18,12.53611111
-0.76,-0.1,12.53888889
-0.75,-0.01,12.54166667
-0.69,0.07,12.54444444
-0.62,0.16,12.54722222
-0.57,0.22,12.55
-0.53,0.3,12.55277778
-0.49,0.37,12.55555556
-0.45,0.42,12.55833333
-0.39,0.47,12.56111111
-0.35,0.52,12.56388889
-0.34,0.55,12.56666667
-0.33,0.57,12.56944444
-0.31,0.6,12.57222222
-0.3,0.6,12.575
-0.3,0.62,12.57777778
-0.3,0.64,12.58055556
-0.31,0.62,12.58333333
-0.31,0.67,12.58611111
-0.3,0.67,12.58888889
-0.3,0.66,12.59166667
-0.3,0.67,12.59444444
-0.31,0.67,12.59722222
-0.32,0.66,12.6
-0.33,0.69,12.60277778
-0.32,0.69,12.60555556
-0.33,0.69,12.60833333
-0.31,0.69,12.61111111
-0.32,0.69,12.61388889
-0.32,0.69,12.61666667
-0.33,0.71,12.61944444
-0.31,0.71,12.62222222
-0.31,0.71,12.625
-0.32,0.72,12.62777778
-0.33,0.71,12.63055556
-0.34,0.72,12.63333333
-0.33,0.72,12.63611111
-0.31,0.74,12.63888889
-0.31,0.74,12.64166667
-0.31,0.74,12.64444444
-0.32,0.74,12.64722222
-0.34,0.74,12.65
-0.34,0.74,12.65277778
-0.33,0.74,12.65555556
-0.31,0.74,12.65833333
-0.31,0.74,12.66111111
-0.31,0.74,12.66388889
-0.33,0.74,12.66666667
-0.34,0.74,12.66944444
-0.32,0.76,12.67222222
-0.31,0.76,12.675
-0.31,0.76,12.67777778
-0.32,0.75,12.68055556
-0.34,0.75,12.68333333
-0.33,0.77,12.68611111
-0.31,0.77,12.68888889
-0.31,0.78,12.69166667
-0.31,0.77,12.69444444
-0.31,0.77,12.69722222
-0.31,0.76,12.7
-0.31,0.77,12.70277778
-0.31,0.79,12.70555556
-0.31,0.78,12.70833333
-0.3,0.77,12.71111111
-0.31,0.76,12.71388889
-0.32,0.75,12.71666667
-0.31,0.76,12.71944444
-0.3,0.76,12.72222222
-0.28,0.76,12.725
-0.28,0.74,12.72777778
-0.28,0.74,12.73055556
-0.28,0.74,12.73333333
-0.28,0.74,12.73611111
-0.26,0.74,12.73888889
-0.26,0.74,12.74166667
-0.26,0.72,12.74444444
-0.27,0.72,12.74722222
-0.27,0.72,12.75
-0.25,0.72,12.75277778
-0.26,0.72,12.75555556
-0.23,0.71,12.75833333
-0.25,0.71,12.76111111
-0.25,0.69,12.76388889
-0.24,0.66,12.76666667
-0.22,0.67,12.76944444
-0.21,0.66,12.77222222
-0.19,0.64,12.775
-0.2,0.62,12.77777778
-0.2,0.61,12.78055556
-0.2,0.59,12.78333333
-0.19,0.59,12.78611111
-0.17,0.59,12.78888889
-0.16,0.57,12.79166667
-0.16,0.56,12.79444444
-0.16,0.54,12.79722222
-0.16,0.52,12.8
-0.15,0.52,12.80277778
-0.13,0.52,12.80555556
-0.12,0.5,12.80833333
-0.13,0.49,12.81111111
-0.13,0.47,12.81388889
-0.14,0.47,12.81666667
-0.13,0.47,12.81944444
-0.12,0.45,12.82222222
-0.12,0.44,12.825
-0.12,0.43,12.82777778
-0.13,0.42,12.83055556
-0.13,0.4,12.83333333
-0.13,0.42,12.83611111
-0.13,0.4,12.83888889
-0.1,0.4,12.84166667
-0.11,0.4,12.84444444
-0.12,0.39,12.84722222
-0.13,0.39,12.85
-0.13,0.4,12.85277778
-0.13,0.41,12.85555556
-0.11,0.41,12.85833333
-0.11,0.42,12.86111111
-0.11,0.4,12.86388889
-0.13,0.4,12.86666667
-0.13,0.41,12.86944444
-0.13,0.42,12.87222222
-0.12,0.42,12.875
-0.13,0.4,12.87777778
-0.14,0.4,12.88055556
-0.14,0.4,12.88333333
-0.13,0.4,12.88611111
-0.13,0.42,12.88888889
-0.13,0.42,12.89166667
-0.13,0.42,12.89444444
-0.14,0.4,12.89722222
-0.14,0.4,12.9
-0.16,0.42,12.90277778
-0.14,0.42,12.90555556
-0.14,0.42,12.90833333
-0.15,0.42,12.91111111
-0.15,0.4,12.91388889
-0.16,0.42,12.91666667
-0.17,0.43,12.91944444
-0.16,0.44,12.92222222
-0.14,0.44,12.925
-0.17,0.44,12.92777778
-0.17,0.42,12.93055556
-0.19,0.43,12.93333333
-0.19,0.44,12.93611111
-0.19,0.45,12.93888889
-0.17,0.44,12.94166667
-0.17,0.42,12.94444444
-0.19,0.42,12.94722222
-0.2,0.42,12.95
-0.22,0.44,12.95277778
-0.2,0.45,12.95555556
-0.2,0.44,12.95833333
-0.21,0.44,12.96111111
-0.23,0.42,12.96388889
-0.24,0.44,12.96666667
-0.24,0.45,12.96944444
-0.23,0.44,12.97222222
-0.23,0.44,12.975
-0.23,0.45,12.97777778
-0.25,0.44,12.98055556
-0.26,0.44,12.98333333
-0.25,0.45,12.98611111
-0.25,0.45,12.98888889
-0.25,0.45,12.99166667
-0.26,0.45,12.99444444
-0.28,0.42,12.99722222
-0.31,0.42,13.0
-0.3,0.42,13.00277778
-0.27,0.44,13.00555556
-0.28,0.42,13.00833333
-0.28,0.41,13.01111111
-0.29,0.4,13.01388889
-0.29,0.4,13.01666667
-0.28,0.4,13.01944444
-0.26,0.42,13.02222222
-0.25,0.42,13.025
-0.26,0.41,13.02777778
-0.27,0.39,13.03055556
-0.28,0.4,13.03333333
-0.26,0.4,13.03611111
-0.25,0.42,13.03888889
-0.25,0.4,13.04166667
-0.25,0.41,13.04444444
-0.27,0.4,13.04722222
-0.26,0.4,13.05
-0.26,0.4,13.05277778
-0.23,0.4,13.05555556
-0.24,0.39,13.05833333
-0.25,0.39,13.06111111
-0.24,0.37,13.06388889
-0.26,0.37,13.06666667
-0.24,0.38,13.06944444
-0.24,0.39,13.07222222
-0.23,0.39,13.075
-0.22,0.39,13.07777778
-0.23,0.37,13.08055556
-0.23,0.37,13.08333333
-0.22,0.37,13.08611111
-0.22,0.37,13.08888889
-0.22,0.37,13.09166667
-0.22,0.38,13.09444444
-0.21,0.37,13.09722222
-0.23,0.37,13.1
-0.23,0.38,13.10277778
-0.22,0.39,13.10555556
-0.19,0.37,13.10833333
-0.2,0.37,13.11111111
-0.21,0.35,13.11388889
-0.22,0.35,13.11666667
-0.2,0.35,13.11944444
-0.22,0.38,13.12222222
-0.21,0.37,13.125
-0.2,0.35,13.12777778
-0.19,0.35,13.13055556
-0.19,0.36,13.13333333
-0.22,0.35,13.13611111
-0.2,0.37,13.13888889
-0.19,0.36,13.14166667
-0.19,0.36,13.14444444
-0.2,0.35,13.14722222
-0.22,0.35,13.15
-0.2,0.37,13.15277778
-0.19,0.37,13.15555556
-0.2,0.36,13.15833333
-0.19,0.37,13.16111111
-0.2,0.35,13.16388889
-0.21,0.34,13.16666667
-0.22,0.35,13.16944444
-0.19,0.35,13.17222222
-0.19,0.35,13.175
-0.19,0.34,13.17777778
-0.19,0.34,13.18055556
-0.22,0.34,13.18333333
-0.2,0.35,13.18611111
-0.2,0.35,13.18888889
-0.19,0.35,13.19166667
-0.19,0.35,13.19444444
-0.19,0.35,13.19722222
-0.2,0.35,13.2
-0.19,0.35,13.20277778
-0.19,0.37,13.20555556
-0.18,0.37,13.20833333
-0.19,0.36,13.21111111
-0.19,0.34,13.21388889
-0.21,0.34,13.21666667
-0.19,0.34,13.21944444
-0.2,0.35,13.22222222
-0.19,0.34,13.225
-0.18,0.34,13.22777778
-0.19,0.32,13.23055556
-0.2,0.33,13.23333333
-0.2,0.35,13.23611111
-0.19,0.34,13.23888889
-0.19,0.35,13.24166667
-0.19,0.33,13.24444444
-0.2,0.34,13.24722222
-0.21,0.34,13.25
-0.19,0.35,13.25277778
-0.19,0.37,13.25555556
-0.19,0.36,13.25833333
-0.19,0.35,13.26111111
-0.19,0.34,13.26388889
-0.19,0.33,13.26666667
-0.2,0.33,13.26944444
-0.18,0.35,13.27222222
-0.17,0.34,13.275
-0.18,0.34,13.27777778
-0.2,0.33,13.28055556
-0.2,0.32,13.28333333
-0.2,0.33,13.28611111
-0.2,0.34,13.28888889
-0.18,0.35,13.29166667
-0.17,0.34,13.29444444
-0.16,0.33,13.29722222
-0.16,0.34,13.3
-0.15,0.36,13.30277778
-0.14,0.38,13.30555556
-0.13,0.39,13.30833333
-0.13,0.4,13.31111111
-0.13,0.37,13.31388889
-0.14,0.37,13.31666667
-0.11,0.41,13.31944444
-0.08,0.4,13.32222222
-0.05,0.4,13.325
-0.03,0.38,13.32777778
-0.01,0.37,13.33055556
-0.02,0.36,13.33333333
-0.01,0.35,13.33611111
0.0,0.35,13.33888889
0.02,0.35,13.34166667
0.04,0.34,13.34444444
0.04,0.32,13.34722222
0.02,0.32,13.35
0.03,0.33,13.35277778
0.05,0.35,13.35555556
0.05,0.35,13.35833333
0.04,0.35,13.36111111
0.01,0.34,13.36388889
-0.05,0.33,13.36666667
-0.1,0.32,13.36944444
-0.13,0.33,13.37222222
-0.16,0.33,13.375
-0.19,0.32,13.37777778
-0.25,0.29,13.38055556
-0.27,0.28,13.38333333
-0.27,0.27,13.38611111
-0.25,0.3,13.38888889
-0.24,0.29,13.39166667
-0.25,0.29,13.39444444
-0.25,0.27,13.39722222
-0.26,0.27,13.4
-0.25,0.29,13.40277778
-0.25,0.29,13.40555556
-0.25,0.29,13.40833333
-0.25,0.29,13.41111111
-0.25,0.28,13.41388889
-0.26,0.27,13.41666667
-0.26,0.28,13.41944444
-0.25,0.29,13.42222222
-0.25,0.29,13.425
-0.25,0.27,13.42777778
-0.26,0.25,13.43055556
-0.28,0.25,13.43333333
-0.27,0.27,13.43611111
-0.25,0.27,13.43888889
-0.25,0.27,13.44166667
-0.26,0.26,13.44444444
-0.26,0.26,13.44722222
-0.28,0.25,13.45
-0.27,0.26,13.45277778
-0.25,0.28,13.45555556
-0.24,0.27,13.45833333
-0.24,0.26,13.46111111
-0.26,0.26,13.46388889
-0.26,0.25,13.46666667
-0.27,0.27,13.46944444
-0.26,0.29,13.47222222
-0.25,0.29,13.475
-0.26,0.26,13.47777778
-0.25,0.2,13.48055556
-0.26,0.08,13.48333333
-0.2,-0.0,13.48611111
-0.12,-0.13,13.48888889
-0.05,-0.26,13.49166667
0.04,-0.44,13.49444444
0.15,-0.67,13.49722222
0.22,-0.87,13.5
0.22,-1.02,13.50277778
0.19,-1.04,13.50555556
0.22,-1.04,13.50833333
0.25,-1.01,13.51111111
0.28,-1.0,13.51388889
0.31,-0.97,13.51666667
0.34,-0.92,13.51944444
0.34,-0.88,13.52222222
0.34,-0.86,13.525
0.37,-0.86,13.52777778
0.36,-0.84,13.53055556
0.37,-0.81,13.53333333
0.32,-0.77,13.53611111
0.2,-0.72,13.53888889
0.04,-0.67,13.54166667
-0.15,-0.62,13.54444444
-0.28,-0.57,13.54722222
-0.42,-0.52,13.55
-0.57,-0.45,13.55277778
-0.69,-0.35,13.55555556
-0.76,-0.25,13.55833333
-0.8,-0.17,13.56111111
-0.78,-0.1,13.56388889
-0.72,-0.02,13.56666667
-0.64,0.06,13.56944444
-0.59,0.15,13.57222222
-0.56,0.2,13.575
-0.54,0.27,13.57777778
-0.51,0.3,13.58055556
-0.46,0.35,13.58333333
-0.42,0.4,13.58611111
-0.39,0.44,13.58888889
-0.37,0.44,13.59166667
-0.38,0.45,13.59444444
-0.39,0.44,13.59722222
-0.39,0.46,13.6
-0.37,0.47,13.60277778
-0.37,0.49,13.60555556
-0.38,0.5,13.60833333
-0.38,0.49,13.61111111
-0.4,0.49,13.61388889
-0.39,0.5,13.61666667
-0.4,0.5,13.61944444
-0.39,0.52,13.62222222
-0.39,0.53,13.625
-0.4,0.52,13.62777778
-0.39,0.54,13.63055556
-0.4,0.53,13.63333333
-0.4,0.55,13.63611111
-0.4,0.56,13.63888889
-0.39,0.57,13.64166667
-0.39,0.55,13.64444444
-0.4,0.55,13.64722222
-0.41,0.55,13.65
-0.42,0.55,13.65277778
-0.4,0.57,13.65555556
-0.4,0.56,13.65833333
-0.4,0.54,13.66111111
-0.4,0.55,13.66388889
-0.43,0.54,13.66666667
-0.42,0.55,13.66944444
-0.4,0.57,13.67222222
-0.42,0.57,13.675
-0.41,0.56,13.67777778
-0.41,0.55,13.68055556
-0.43,0.55,13.68333333
-0.43,0.57,13.68611111
-0.42,0.59,13.68888889
-0.4,0.57,13.69166667
-0.4,0.57,13.69444444
-0.41,0.57,13.69722222
-0.42,0.57,13.7
-0.43,0.58,13.70277778
-0.43,0.59,13.70555556
-0.4,0.59,13.70833333
-0.4,0.57,13.71111111
-0.39,0.57,13.71388889
-0.42,0.56,13.71666667
-0.43,0.56,13.71944444
-0.41,0.57,13.72222222
-0.4,0.57,13.725
-0.39,0.57,13.72777778
-0.4,0.56,13.73055556
-0.4,0.55,13.73333333
-0.4,0.57,13.73611111
-0.39,0.57,13.73888889
-0.39,0.56,13.74166667
-0.4,0.57,13.74444444
-0.4,0.55,13.74722222
-0.4,0.54,13.75
-0.4,0.55,13.75277778
-0.38,0.57,13.75555556
-0.37,0.56,13.75833333
-0.37,0.55,13.76111111
-0.4,0.54,13.76388889
-0.39,0.52,13.76666667
-0.39,0.53,13.76944444
-0.37,0.54,13.77222222
-0.36,0.52,13.775
-0.34,0.52,13.77777778
-0.36,0.49,13.78055556
-0.36,0.5,13.78333333
-0.35,0.5,13.78611111
-0.33,0.5,13.78888889
-0.32,0.49,13.79166667
-0.31,0.47,13.79444444
-0.33,0.45,13.79722222
-0.34,0.44,13.8
-0.33,0.45,13.80277778
-0.3,0.45,13.80555556
-0.3,0.44,13.80833333
-0.28,0.42,13.81111111
-0.3,0.4,13.81388889
-0.31,0.39,13.81666667
-0.28,0.39,13.81944444
-0.28,0.38,13.82222222
-0.26,0.37,13.825
-0.25,0.35,13.82777778
-0.25,0.32,13.83055556
-0.25,0.31,13.83333333
-0.23,0.31,13.83611111
-0.23,0.32,13.83888889
-0.22,0.3,13.84166667
-0.22,0.3,13.84444444
-0.22,0.28,13.84722222
-0.25,0.29,13.85
-0.23,0.29,13.85277778
-0.23,0.3,13.85555556
-0.22,0.27,13.85833333
-0.22,0.27,13.86111111
-0.22,0.26,13.86388889
-0.23,0.26,13.86666667
-0.22,0.28,13.86944444
-0.2,0.29,13.87222222
-0.22,0.27,13.875
-0.22,0.25,13.87777778
-0.23,0.25,13.88055556
-0.24,0.24,13.88333333
-0.23,0.26,13.88611111
-0.22,0.27,13.88888889
-0.21,0.27,13.89166667
-0.23,0.26,13.89444444
-0.23,0.25,13.89722222
-0.23,0.24,13.9
-0.23,0.27,13.90277778
-0.24,0.27,13.90555556
-0.24,0.27,13.90833333
-0.25,0.26,13.91111111
-0.25,0.27,13.91388889
-0.28,0.27,13.91666667
-0.26,0.29,13.91944444
-0.25,0.3,13.92222222
-0.23,0.29,13.925
-0.25,0.29,13.92777778
-0.26,0.28,13.93055556
-0.28,0.27,13.93333333
-0.28,0.28,13.93611111
-0.26,0.3,13.93888889
-0.26,0.3,13.94166667
-0.28,0.3,13.94444444
-0.31,0.28,13.94722222
-0.32,0.29,13.95
-0.31,0.29,13.95277778
-0.29,0.32,13.95555556
-0.28,0.31,13.95833333
-0.3,0.3,13.96111111
-0.31,0.29,13.96388889
-0.33,0.29,13.96666667
-0.34,0.31,13.96944444
-0.33,0.33,13.97222222
-0.33,0.32,13.975
-0.34,0.32,13.97777778
-0.36,0.31,13.98055556
-0.36,0.3,13.98333333
-0.36,0.3,13.98611111
-0.36,0.32,13.98888889
-0.37,0.3,13.99166667
-0.37,0.3,13.99444444
-0.38,0.29,13.99722222
-0.4,0.29,14.0
-0.4,0.3,14.00277778
-0.37,0.32,14.00555556
-0.37,0.3,14.00833333
-0.37,0.3,14.01111111
-0.41,0.27,14.01388889
-0.42,0.28,14.01666667
-0.42,0.31,14.01944444
-0.39,0.3,14.02222222
-0.39,0.29,14.025
-0.4,0.3,14.02777778
-0.43,0.28,14.03055556
-0.42,0.29,14.03333333
-0.42,0.28,14.03611111
-0.4,0.27,14.03888889
-0.39,0.27,14.04166667
-0.37,0.27,14.04444444
-0.4,0.26,14.04722222
-0.4,0.25,14.05
-0.4,0.27,14.05277778
-0.39,0.27,14.05555556
-0.39,0.27,14.05833333
-0.37,0.26,14.06111111
-0.37,0.25,14.06388889
-0.39,0.25,14.06666667
-0.37,0.25,14.06944444
-0.38,0.27,14.07222222
-0.36,0.27,14.075
-0.37,0.25,14.07777778
-0.38,0.25,14.08055556
-0.38,0.25,14.08333333
-0.38,0.25,14.08611111
-0.37,0.27,14.08888889
-0.36,0.25,14.09166667
-0.35,0.25,14.09444444
-0.35,0.24,14.09722222
-0.37,0.24,14.1
-0.36,0.25,14.10277778
-0.35,0.25,14.10555556
-0.34,0.25,14.10833333
-0.34,0.24,14.11111111
-0.36,0.24,14.11388889
-0.37,0.22,14.11666667
-0.36,0.25,14.11944444
-0.34,0.25,14.12222222
-0.34,0.24,14.125
-0.34,0.25,14.12777778
-0.34,0.24,14.13055556
-0.34,0.25,14.13333333
-0.35,0.25,14.13611111
-0.34,0.26,14.13888889
-0.33,0.25,14.14166667
-0.34,0.25,14.14444444
-0.34,0.23,14.14722222
-0.34,0.22,14.15
-0.34,0.24,14.15277778
-0.33,0.25,14.15555556
-0.33,0.24,14.15833333
-0.34,0.24,14.16111111
-0.34,0.24,14.16388889
-0.35,0.23,14.16666667
-0.34,0.24,14.16944444
-0.33,0.24,14.17222222
-0.33,0.25,14.175
-0.33,0.23,14.17777778
-0.33,0.22,14.18055556
-0.34,0.24,14.18333333
-0.34,0.25,14.18611111
-0.33,0.25,14.18888889
-0.31,0.25,14.19166667
-0.31,0.25,14.19444444
-0.33,0.24,14.19722222
-0.34,0.23,14.2
-0.36,0.23,14.20277778
-0.33,0.24,14.20555556
-0.31,0.24,14.20833333
-0.3,0.22,14.21111111
-0.32,0.22,14.21388889
-0.34,0.22,14.21666667
-0.32,0.23,14.21944444
-0.31,0.24,14.22222222
-0.31,0.24,14.225
-0.32,0.24,14.22777778
-0.33,0.24,14.23055556
-0.33,0.22,14.23333333
-0.33,0.24,14.23611111
-0.31,0.25,14.23888889
-0.3,0.24,14.24166667
-0.31,0.24,14.24444444
-0.32,0.24,14.24722222
-0.34,0.23,14.25
-0.32,0.24,14.25277778
-0.31,0.24,14.25555556
-0.29,0.24,14.25833333
-0.29,0.23,14.26111111
-0.3,0.22,14.26388889
-0.3,0.24,14.26666667
-0.28,0.25,14.26944444
-0.26,0.27,14.27222222
-0.26,0.28,14.275
-0.28,0.27,14.27777778
-0.26,0.26,14.28055556
-0.25,0.27,14.28333333
-0.23,0.29,14.28611111
-0.22,0.3,14.28888889
-0.17,0.3,14.29166667
-0.17,0.29,14.29444444
-0.16,0.29,14.29722222
-0.15,0.28,14.3
-0.13,0.28,14.30277778
-0.1,0.29,14.30555556
-0.08,0.28,14.30833333
-0.11,0.27,14.31111111
-0.11,0.24,14.31388889
-0.1,0.24,14.31666667
-0.07,0.25,14.31944444
-0.04,0.25,14.32222222
-0.02,0.25,14.325
-0.04,0.25,14.32777778
-0.04,0.25,14.33055556
-0.08,0.26,14.33333333
-0.13,0.25,14.33611111
-0.18,0.25,14.33888889
-0.21,0.24,14.34166667
-0.25,0.23,14.34444444
-0.27,0.22,14.34722222
-0.31,0.22,14.35
-0.34,0.22,14.35277778
-0.36,0.24,14.35555556
-0.35,0.22,14.35833333
-0.34,0.2,14.36111111
-0.35,0.2,14.36388889
-0.36,0.2,14.36666667
-0.37,0.19,14.36944444
-0.36,0.2,14.37222222
-0.36,0.2,14.375
-0.35,0.19,14.37777778
-0.36,0.18,14.38055556
-0.37,0.18,14.38333333
-0.37,0.18,14.38611111
-0.36,0.2,14.38888889
-0.35,0.19,14.39166667
-0.36,0.19,14.39444444
-0.36,0.18,14.39722222
-0.37,0.19,14.4
-0.34,0.2,14.40277778
-0.34,0.2,14.40555556
-0.34,0.2,14.40833333
-0.34,0.2,14.41111111
-0.34,0.18,14.41388889
-0.36,0.18,14.41666667
-0.35,0.18,14.41944444
-0.34,0.2,14.42222222
-0.34,0.19,14.425
-0.34,0.18,14.42777778
-0.35,0.17,14.43055556
-0.36,0.17,14.43333333
-0.35,0.18,14.43611111
-0.34,0.18,14.43888889
-0.33,0.17,14.44166667
-0.34,0.17,14.44444444
-0.34,0.15,14.44722222
-0.34,0.18,14.45
-0.34,0.18,14.45277778
-0.34,0.18,14.45555556
-0.34,0.15,14.45833333
-0.33,0.07,14.46111111
-0.3,0.0,14.46388889
-0.25,-0.08,14.46666667
-0.16,-0.15,14.46944444
-0.07,-0.25,14.47222222
0.05,-0.4,14.475
0.15,-0.59,14.47777778
0.22,-0.8,14.48055556
0.23,-0.97,14.48333333
0.2,-1.04,14.48611111
0.19,-1.02,14.48888889
0.23,-1.01,14.49166667
0.28,-1.0,14.49444444
0.31,-0.99,14.49722222
0.34,-0.97,14.5
0.37,-0.92,14.50277778
0.38,-0.89,14.50555556
0.4,-0.85,14.50833333
0.43,-0.84,14.51111111
0.45,-0.84,14.51388889
0.47,-0.81,14.51666667
0.46,-0.76,14.51944444
0.39,-0.72,14.52222222
0.22,-0.69,14.525
0.05,-0.64,14.52777778
-0.11,-0.61,14.53055556
-0.28,-0.57,14.53333333
-0.46,-0.52,14.53611111
-0.62,-0.47,14.53888889
-0.76,-0.39,14.54166667
-0.84,-0.32,14.54444444
-0.89,-0.25,14.54722222
-0.88,-0.18,14.55
-0.81,-0.1,14.55277778
-0.72,-0.02,14.55555556
-0.68,0.05,14.55833333
-0.67,0.1,14.56111111
-0.66,0.15,14.56388889
-0.63,0.19,14.56666667
-0.57,0.26,14.56944444
-0.54,0.3,14.57222222
-0.51,0.34,14.575
-0.5,0.35,14.57777778
-0.49,0.35,14.58055556
-0.51,0.37,14.58333333
-0.49,0.38,14.58611111
-0.5,0.41,14.58888889
-0.48,0.42,14.59166667
-0.49,0.41,14.59444444
-0.49,0.41,14.59722222
-0.5,0.4,14.6
-0.49,0.43,14.60277778
-0.49,0.44,14.60555556
-0.49,0.43,14.60833333
-0.49,0.44,14.61111111
-0.5,0.44,14.61388889
-0.51,0.44,14.61666667
-0.52,0.45,14.61944444
-0.49,0.47,14.62222222
-0.5,0.46,14.625
-0.51,0.47,14.62777778
-0.52,0.45,14.63055556
-0.53,0.46,14.63333333
-0.52,0.47,14.63611111
-0.52,0.49,14.63888889
-0.51,0.5,14.64166667
-0.52,0.49,14.64444444
-0.53,0.49,14.64722222
-0.54,0.48,14.65
-0.53,0.49,14.65277778
-0.52,0.52,14.65555556
-0.52,0.51,14.65833333
-0.52,0.51,14.66111111
-0.53,0.49,14.66388889
-0.54,0.49,14.66666667
-0.54,0.52,14.66944444
-0.52,0.52,14.67222222
-0.52,0.52,14.675
-0.52,0.52,14.67777778
-0.52,0.52,14.68055556
-0.53,0.52,14.68333333
-0.51,0.53,14.68611111
-0.51,0.55,14.68888889
-0.5,0.55,14.69166667
-0.51,0.54,14.69444444
-0.52,0.55,14.69722222
-0.52,0.55,14.7
-0.52,0.56,14.70277778
-0.51,0.56,14.70555556
-0.51,0.56,14.70833333
-0.51,0.55,14.71111111
-0.5,0.54,14.71388889
-0.51,0.54,14.71666667
-0.49,0.53,14.71944444
-0.48,0.55,14.72222222
-0.49,0.54,14.725
-0.49,0.53,14.72777778
-0.49,0.54,14.73055556
-0.49,0.53,14.73333333
-0.49,0.52,14.73611111
-0.48,0.54,14.73888889
-0.47,0.52,14.74166667
-0.46,0.52,14.74444444
-0.46,0.5,14.74722222
-0.46,0.5,14.75
-0.46,0.51,14.75277778
-0.45,0.52,14.75555556
-0.43,0.52,14.75833333
-0.42,0.49,14.76111111
-0.43,0.49,14.76388889
-0.43,0.47,14.76666667
-0.41,0.47,14.76944444
-0.4,0.45,14.77222222
-0.39,0.44,14.775
-0.4,0.42,14.77777778
-0.39,0.4,14.78055556
-0.37,0.39,14.78333333
-0.36,0.39,14.78611111
-0.34,0.4,14.78888889
-0.33,0.37,14.79166667
-0.33,0.34,14.79444444
-0.32,0.32,14.79722222
-0.32,0.31,14.8
-0.31,0.32,14.80277778
-0.31,0.32,14.80555556
-0.28,0.29,14.80833333
-0.28,0.29,14.81111111
-0.3,0.27,14.81388889
-0.3,0.26,14.81666667
-0.28,0.24,14.81944444
-0.26,0.24,14.82222222
-0.26,0.22,14.825
-0.28,0.22,14.82777778
-0.26,0.2,14.83055556
-0.26,0.19,14.83333333
-0.26,0.22,14.83611111
-0.25,0.22,14.83888889
-0.25,0.2,14.84166667
-0.25,0.2,14.84444444
-0.25,0.19,14.84722222
-0.26,0.18,14.85
-0.26,0.2,14.85277778
-0.25,0.2,14.85555556
-0.25,0.2,14.85833333
-0.25,0.2,14.86111111
-0.26,0.19,14.86388889
-0.26,0.18,14.86666667
-0.25,0.2,14.86944444
-0.25,0.2,14.87222222
-0.25,0.2,14.875
-0.25,0.18,14.87777778
-0.28,0.18,14.88055556
-0.28,0.19,14.88333333
-0.26,0.19,14.88611111
-0.26,0.2,14.88888889
-0.26,0.2,14.89166667
-0.26,0.2,14.89444444
-0.28,0.19,14.89722222
-0.28,0.18,14.9
-0.26,0.22,14.90277778
-0.26,0.22,14.90555556
-0.26,0.22,14.90833333
-0.28,0.22,14.91111111
-0.28,0.22,14.91388889
-0.29,0.22,14.91666667
-0.28,0.24,14.91944444
-0.28,0.25,14.92222222
-0.29,0.23,14.925
-0.29,0.24,14.92777778
-0.31,0.22,14.93055556
-0.31,0.22,14.93333333
-0.31,0.22,14.93611111
-0.31,0.25,14.93888889
-0.31,0.25,14.94166667
-0.32,0.25,14.94444444
-0.33,0.22,14.94722222
-0.34,0.24,14.95
-0.35,0.25,14.95277778
-0.33,0.25,14.95555556
-0.34,0.25,14.95833333
-0.34,0.25,14.96111111
-0.36,0.25,14.96388889
-0.37,0.25,14.96666667
-0.37,0.26,14.96944444
-0.36,0.27,14.97222222
-0.36,0.25,14.975
-0.36,0.22,14.97777778
-0.36,0.24,14.98055556
-0.37,0.22,14.98333333
-0.37,0.24,14.98611111
-0.36,0.24,14.98888889
-0.36,0.25,14.99166667
-0.36,0.22,14.99444444
-0.37,0.22,14.99722222
-0.37,0.22,15.0
-0.37,0.23,15.00277778
-0.37,0.23,15.00555556
-0.37,0.22,15.00833333
-0.36,0.22,15.01111111
-0.38,0.2,15.01388889
-0.39,0.2,15.01666667
-0.39,0.22,15.01944444
-0.35,0.23,15.02222222
-0.34,0.24,15.025
-0.34,0.22,15.02777778
-0.36,0.2,15.03055556
-0.36,0.2,15.03333333
-0.34,0.2,15.03611111
-0.34,0.22,15.03888889
-0.34,0.2,15.04166667
-0.33,0.2,15.04444444
-0.35,0.19,15.04722222
-0.37,0.19,15.05
-0.35,0.2,15.05277778
-0.34,0.2,15.05555556
-0.34,0.2,15.05833333
-0.34,0.2,15.06111111
-0.34,0.2,15.06388889
-0.34,0.18,15.06666667
-0.33,0.2,15.06944444
-0.33,0.2,15.07222222
-0.31,0.2,15.075
-0.31,0.2,15.07777778
-0.33,0.18,15.08055556
-0.34,0.18,15.08333333
-0.33,0.18,15.08611111
-0.31,0.2,15.08888889
-0.31,0.19,15.09166667
-0.3,0.18,15.09444444
-0.31,0.17,15.09722222
